DEVICE_ID,PULSE_BPM,SPO2_PCT,SPO2_STATUS,PLETH,BATTERY,RED_ADC,IR_ADC
4,69,98.9,0,6868,3759.2,42934,29546
4,69,98.9,0,6270,3759.2,42927,29536
4,69,98.9,0,5713,3759.2,42920,29528
4,69,98.9,0,5157,3759.2,42892,29490
4,69,98.9,0,4798,3759.2,42844,29417
4,69,98.9,0,4599,3759.2,42770,29319
4,69,98.9,0,4754,3759.2,42720,29242
4,69,98.9,0,5344,3759.2,42689,29201
4,69,98.9,0,6603,3759.2,42672,29179
4,69,98.9,0,8651,3759.2,42665,29170
4,69,98.9,0,11605,3759.2,42667,29175
4,69,98.9,0,15429,3759.2,42675,29181
4,69,98.9,0,19968,3759.2,42684,29195
4,69,98.9,0,25149,3759.2,42690,29205
4,69,98.9,0,30700,3759.2,42698,29217
4,69,98.9,0,36391,3759.2,42706,29226
4,69,98.9,0,41939,3759.2,42710,29229
4,69,98.9,0,47140,3759.2,42709,29232
4,69,98.9,0,51706,3759.2,42712,29233
4,69,98.9,0,55554,3759.2,42704,29229
4,69,98.9,0,58560,3759.2,42702,29221
4,69,98.9,8,60683,3759.2,42695,29224
4,69,98.9,0,61964,3759.2,42699,29223
4,69,98.9,0,62258,3759.2,42700,29230
4,69,98.9,0,62099,3759.2,42710,29238
4,69,98.9,0,61345,3759.2,42714,29250
4,69,98.9,0,60117,3759.2,42722,29261
4,69,98.9,0,58572,3759.2,42729,29274
4,69,98.9,0,56751,3759.2,42739,29286
4,69,98.9,0,54852,3759.2,42744,29294
4,69,98.9,0,52835,3759.2,42750,29302
4,69,98.9,0,50818,3759.2,42752,29306
4,69,98.9,0,48800,3759.2,42757,29312
4,69,98.9,0,46859,3759.2,42757,29316
4,69,98.9,0,44997,3759.2,42760,29318
4,69,98.9,0,43252,3759.2,42767,29321
4,69,98.9,0,41583,3759.2,42773,29331
4,69,98.9,0,40071,3759.2,42779,29336
4,69,98.9,0,38676,3759.2,42786,29341
4,69,98.9,0,37437,3759.2,42785,29350
4,69,98.9,0,36316,3759.2,42790,29358
4,69,98.9,0,35232,3759.2,42796,29365
4,69,98.9,0,34265,3759.2,42803,29379
4,69,98.9,0,33416,3759.2,42809,29386
4,69,98.9,0,32564,3759.2,42812,29396
4,69,98.9,0,31708,3759.2,42822,29408
4,69,98.9,0,30850,3759.2,42830,29417
4,69,98.9,0,29907,3759.2,42833,29423
4,69,98.9,0,28919,3759.2,42841,29433
4,69,98.9,0,27847,3759.2,42844,29439
4,69,98.9,0,26730,3759.2,42846,29445
4,69,98.9,0,25487,3759.2,42853,29452
4,69,98.9,0,24200,3759.2,42852,29455
4,69,98.9,0,22910,3759.2,42855,29462
4,69,98.9,0,21576,3759.2,42862,29469
4,69,98.9,0,20281,3759.2,42863,29471
4,69,98.9,0,18985,3759.2,42870,29481
4,69,98.9,0,17770,3759.2,42873,29485
4,69,98.9,0,16595,3759.2,42880,29494
4,69,98.9,0,15461,3759.2,42879,29500
4,69,98.9,0,14409,3759.2,42884,29505
4,69,98.9,0,13482,3759.2,42887,29506
4,69,98.9,0,12596,3759.2,42891,29512
4,69,99.2,0,11794,3759.2,42895,29519
4,69,99.2,0,11075,3759.2,42899,29527
4,69,99.2,0,10398,3759.2,42903,29531
4,69,99.2,0,9763,3759.2,42908,29537
4,69,99.2,0,9170,3759.2,42909,29543
4,69,99.2,0,8661,3759.2,42915,29546
4,69,99.2,0,8153,3759.2,42920,29555
4,69,99.2,0,7686,3759.2,42924,29560
4,69,99.2,0,7262,3759.2,42927,29564
4,69,99.2,0,6797,3759.2,42931,29570
4,69,99.2,0,6332,3759.2,42934,29575
4,69,99.2,0,5827,3759.2,42938,29580
4,69,99.2,0,5322,3759.2,42939,29583
4,69,99.2,0,4817,3759.2,42944,29595
4,69,99.2,0,4356,3759.2,42947,29598
4,69,99.2,0,3853,3759.2,42953,29603
4,69,99.2,0,3352,3759.2,42955,29606
4,69,99.2,0,3276,3759.2,42963,29613
4,69,99.2,0,3276,3759.2,42963,29618
4,69,99.2,0,3276,3759.2,42964,29620
4,69,99.2,0,3276,3759.2,42968,29628
4,69,99.2,0,3276,3759.2,42966,29627
4,69,99.2,0,3276,3759.2,42961,29627
4,69,99.2,0,3276,3759.2,42958,29619
4,69,99.2,0,3276,3759.2,42948,29606
4,69,99.2,0,3276,3759.2,42930,29582
4,69,99.2,0,3276,3759.2,42891,29529
4,69,99.2,0,3313,3759.2,42826,29440
4,69,99.2,0,3533,3759.2,42757,29348
4,69,99.2,0,4157,3759.2,42713,29289
4,69,99.2,0,5331,3759.2,42687,29257
4,69,99.2,0,7127,3759.2,42680,29244
4,69,99.2,0,9730,3759.2,42677,29243
4,69,99.2,0,13141,3759.2,42689,29256
4,69,99.2,0,17288,3759.2,42694,29273
4,69,99.2,0,22030,3759.2,42710,29290
4,69,99.2,0,27187,3759.2,42723,29304
4,69,99.2,0,32545,3759.2,42723,29318
4,69,99.2,0,37811,3759.2,42734,29328
4,69,99.2,0,42758,3759.2,42738,29333
4,69,99.2,0,47119,3759.2,42744,29342
4,69,99.2,0,50814,3759.2,42750,29343
4,69,99.2,0,53693,3759.2,42751,29345
4,69,99.2,8,55714,3759.2,42750,29348
4,69,99.2,0,56841,3759.2,42753,29349
4,69,99.2,0,57147,3759.2,42757,29357
4,69,99.2,0,56709,3759.2,42756,29364
4,69,99.2,0,55600,3759.2,42764,29374
4,69,99.2,0,54081,3759.2,42774,29384
4,69,99.2,0,52152,3759.2,42781,29394
4,69,99.2,0,49962,3759.2,42786,29402
4,69,99.2,0,47621,3759.2,42788,29406
4,69,99.2,0,45278,3759.2,42791,29411
4,69,99.2,0,43006,3759.2,42791,29411
4,69,99.2,0,40804,3759.2,42791,29414
4,69,99.2,0,38748,3759.2,42788,29411
4,69,99.2,0,36912,3759.2,42786,29412
4,69,99.2,0,35296,3759.2,42788,29416
4,69,99.2,0,33901,3759.2,42788,29418
4,69,99.2,0,32805,3759.2,42798,29429
4,69,99.2,0,31932,3759.2,42803,29436
4,69,99.2,0,31246,3759.2,42805,29441
4,69,99.2,0,30747,3759.2,42811,29449
4,69,99.2,0,30400,3759.2,42817,29457
4,69,99.2,0,30090,3759.2,42819,29464
4,69,99.2,0,29855,3759.2,42825,29472
4,69,99.2,0,29620,3759.2,42830,29481
4,69,99.2,0,29306,3759.2,42833,29492
4,69,99.2,0,28954,3759.2,42840,29502
4,69,99.2,0,28484,3759.2,42850,29504
4,69,99.2,0,27859,3759.2,42851,29511
4,69,99.2,0,27154,3759.2,42849,29515
4,69,99.2,0,26331,3759.2,42851,29521
4,69,99.2,0,25389,3759.2,42853,29521
4,69,99.2,0,24368,3759.2,42860,29531
4,69,99.2,0,23305,3759.2,42867,29542
4,69,99.2,0,22240,3759.2,42866,29543
4,69,99.2,0,21134,3759.2,42871,29549
4,69,99.2,0,20026,3759.2,42875,29553
4,69,99.2,0,18956,3759.2,42882,29565
4,69,99.2,0,17924,3759.2,42880,29564
4,69,99.2,0,16969,3759.2,42880,29567
4,69,99.2,0,16092,3759.2,42877,29572
4,69,99.2,0,15293,3759.2,42878,29575
4,69,99.2,0,14573,3759.2,42869,29567
4,69,99.2,0,13930,3759.2,42863,29567
4,69,99.2,0,13366,3759.2,42849,29555
4,69,99.2,0,12921,3759.2,42820,29542
4,69,99.2,0,12554,3759.2,42787,29519
4,69,99.2,0,12384,3759.2,42744,29497
4,69,99.2,0,12411,3759.2,42708,29474
4,69,99.2,0,12674,3759.2,42674,29456
4,69,99.2,0,13175,3759.2,42654,29449
4,69,99.2,0,13991,3759.2,42639,29443
4,69,99.2,0,15124,3759.2,42621,29437
4,69,99.2,0,16574,3759.2,42611,29437
4,69,99.2,0,18341,3759.2,42598,29436
4,69,99.2,0,20309,3759.2,42583,29431
4,69,99.2,0,22399,3759.2,42566,29423
4,69,99.2,0,24612,3759.2,42542,29410
4,69,99.3,0,26791,3759.2,42510,29397
4,69,99.3,0,28976,3759.2,42474,29377
4,69,99.3,0,31088,3759.2,42435,29355
4,69,99.3,0,33128,3759.2,42397,29335
4,69,99.3,0,35055,3759.2,42363,29312
4,69,99.3,0,36908,3759.2,42331,29287
4,69,99.3,0,38727,3759.2,42295,29249
4,69,99.3,0,40591,3759.2,42246,29189
4,69,99.3,0,42540,3759.2,42172,29100
4,69,99.3,0,44655,3759.2,42108,29018
4,69,99.3,0,47096,3759.2,42067,28966
4,69,99.3,0,50025,3759.2,42042,28940
4,69,99.3,0,53523,3759.2,42033,28934
4,69,99.3,0,57708,3759.2,42038,28941
4,69,99.3,0,62258,3759.2,42062,28965
4,69,99.3,0,62258,3759.2,42101,29002
4,69,99.3,0,62258,3759.2,42149,29043
4,69,99.3,0,62258,3759.2,42197,29084
4,69,99.3,0,62258,3759.2,42240,29120
4,69,99.3,0,62258,3759.2,42284,29151
4,69,99.3,0,62258,3759.2,42324,29183
4,69,99.3,0,62258,3759.2,42353,29205
4,69,99.3,0,62258,3759.2,42376,29221
4,69,99.3,8,62258,3759.2,42390,29230
4,69,99.3,0,61838,3759.2,42394,29234
4,69,99.3,0,60852,3759.2,42400,29240
4,69,99.3,0,59374,3759.2,42414,29255
4,69,99.3,0,57478,3759.2,42432,29270
4,69,99.3,0,55255,3759.2,42468,29301
4,69,99.3,0,52850,3759.2,42500,29324
4,69,99.3,0,50334,3759.2,42527,29349
4,69,99.3,0,47799,3759.2,42551,29370
4,69,99.3,0,45317,3759.2,42578,29390
4,69,99.3,0,42904,3759.2,42608,29409
4,69,99.3,0,40616,3759.2,42634,29430
4,69,99.3,0,38469,3759.2,42656,29441
4,69,99.3,0,36501,3759.2,42671,29451
4,69,99.3,0,34656,3759.2,42693,29466
4,69,99.3,0,32990,3759.2,42712,29483
4,69,99.3,0,31484,3759.2,42736,29500
4,69,99.3,0,30104,3759.2,42760,29520
4,69,99.3,0,28868,3759.2,42792,29543
4,69,99.3,0,27721,3759.2,42819,29564
4,69,99.3,0,26628,3759.2,42842,29585
4,69,99.3,0,25588,3759.2,42863,29600
4,69,99.3,0,24601,3759.2,42881,29613
4,69,99.3,0,23593,3759.2,42897,29628
4,69,99.3,0,22584,3759.2,42909,29637
4,69,99.3,0,21572,3759.2,42920,29646
4,69,99.3,0,20521,3759.2,42927,29652
4,69,99.3,0,19488,3759.2,42931,29658
4,69,99.3,0,18453,3759.2,42947,29669
4,69,99.3,0,17436,3759.2,42968,29687
4,69,99.3,0,16456,3759.2,43001,29711
4,69,99.3,0,15513,3759.2,43025,29730
4,69,99.3,0,14608,3759.2,43045,29747
4,69,99.3,0,13779,3759.2,43059,29758
4,69,99.3,0,12968,3759.2,43075,29770
4,69,99.3,0,12177,3759.2,43091,29779
4,69,99.3,0,11423,3759.2,43131,29800
4,69,99.3,0,10689,3759.2,43186,29831
4,69,99.3,0,9956,3759.2,43223,29849
4,69,99.3,0,9223,3759.2,43244,29855
4,69,99.3,0,8490,3759.2,43260,29855
4,69,99.3,0,7758,3759.2,43259,29844
4,69,99.3,0,7027,3759.2,43257,29827
4,69,99.3,0,6316,3759.2,43251,29818
4,69,99.3,0,5663,3759.2,43259,29817
4,69,99.3,0,5087,3759.2,43277,29820
4,69,99.3,0,4627,3759.2,43288,29810
4,69,99.3,0,4281,3759.2,43272,29788
4,69,99.3,0,4108,3759.2,43242,29756
4,69,99.3,0,4087,3759.2,43194,29709
4,69,99.3,0,4296,3759.2,43160,29678
4,69,99.3,0,4732,3759.2,43138,29654
4,69,99.3,0,5416,3759.2,43129,29641
4,69,99.3,0,6365,3759.2,43150,29652
4,69,99.3,0,7561,3759.2,43211,29691
4,69,99.3,0,8966,3759.2,43294,29744
4,69,99.3,0,10522,3759.2,43401,29815
4,69,99.3,0,12135,3759.2,43478,29864
4,69,99.3,0,13671,3759.2,43535,29897
4,69,99.3,0,14997,3759.2,43549,29888
4,69,99.3,0,16036,3759.2,43534,29840
4,69,99.3,0,16712,3759.2,43501,29777
4,69,99.3,0,17023,3759.2,43481,29732
4,69,99.3,0,17028,3759.2,43468,29710
4,69,99.3,0,16783,3759.2,43446,29692
4,69,99.3,0,16403,3759.2,43419,29678
4,69,99.3,0,16023,3759.2,43381,29666
4,69,99.3,0,15700,3759.2,43348,29662
4,69,99.3,0,15532,3759.2,43310,29655
4,69,99.3,0,15576,3759.2,43257,29647
4,69,99.3,0,15851,3759.2,43191,29626
4,69,99.3,0,16398,3759.2,43136,29612
4,69,99.3,0,17177,3759.2,43101,29603
4,69,99.3,0,18189,3759.2,43068,29587
4,69,99.3,0,19415,3759.2,43021,29564
4,69,99.3,0,20799,3759.2,42986,29549
4,69,99.3,0,22282,3759.2,42951,29535
4,69,99.2,0,23865,3759.2,42901,29512
4,69,99.2,0,25490,3759.2,42817,29479
4,69,99.2,0,27140,3759.2,42703,29433
4,69,99.2,0,28833,3759.2,42524,29346
4,69,99.2,0,30512,3759.2,42287,29225
4,69,99.2,0,32276,3759.2,42029,29087
4,69,99.2,0,34184,3759.2,41779,28953
4,69,99.2,0,36356,3759.2,41538,28819
4,69,99.2,0,38889,3759.2,41294,28682
4,69,99.2,0,41944,3759.2,41040,28542
4,69,99.2,0,45638,3759.2,40760,28386
4,69,99.2,0,50069,3759.2,40445,28208
4,69,99.2,0,55334,3759.2,40079,27998
4,69,99.2,0,61466,3759.2,39653,27753
4,69,99.2,0,62258,3759.2,39191,27484
4,69,99.2,0,62258,3759.2,38705,27211
4,69,99.2,0,62258,3759.2,38183,26926
4,69,99.2,0,62258,3759.2,37645,26638
4,69,99.2,0,62258,3759.2,37079,26331
4,69,99.2,0,62258,3759.2,36497,26018
4,69,99.2,0,62258,3759.2,35973,25735
4,69,99.2,0,62258,3759.2,35582,25531
4,69,99.2,0,62258,3759.2,35282,25385
4,69,99.2,0,62258,3759.2,35042,25263
4,69,99.2,0,62258,3759.2,34846,25168
4,69,99.2,0,62258,3759.2,34704,25099
4,69,99.2,0,62258,3759.2,34612,25055
4,69,99.2,0,62258,3759.2,34546,25020
4,69,99.2,0,62258,3759.2,34492,24986
4,69,99.2,0,62258,3759.2,34416,24940
4,69,99.2,0,62258,3759.2,34316,24875
4,69,99.2,0,62258,3759.2,34220,24815
4,69,99.2,0,62258,3759.2,34151,24767
4,69,99.2,0,62258,3759.2,34103,24733
4,69,99.2,0,62258,3759.2,34076,24706
4,69,99.2,0,62258,3759.2,34061,24690
4,69,99.2,0,62258,3759.2,34074,24688
4,69,99.2,0,62258,3759.2,34124,24707
4,69,99.2,0,62202,3759.2,34197,24746
4,69,99.2,0,62029,3759.2,34293,24799
4,69,99.2,0,61758,3759.2,34399,24853
4,69,99.2,0,61408,3759.2,34500,24906
4,69,99.2,8,60988,3759.2,34578,24941
4,69,99.2,0,60511,3759.2,34631,24956
4,69,99.2,0,59984,3759.2,34642,24942
4,69,99.2,0,59425,3759.2,34629,24905
4,69,99.2,0,58841,3759.2,34599,24852
4,69,99.2,0,58244,3759.2,34556,24783
4,69,99.2,0,57652,3759.2,34508,24698
4,69,99.2,0,57077,3759.2,34471,24601
4,69,99.2,0,56539,3759.2,34421,24480
4,69,99.2,0,56057,3759.2,34357,24347
4,69,99.2,0,55645,3759.2,34267,24207
4,69,99.2,0,55321,3759.2,34139,24054
4,69,99.2,0,55099,3759.2,33945,23873
4,69,99.2,0,54986,3759.2,33716,23684
4,69,99.2,0,54997,3759.2,33455,23474
4,69,99.2,0,55133,3759.2,33144,23238
4,69,99.2,0,55402,3759.2,32806,22986
4,69,99.2,0,55807,3759.2,32497,22764
4,69,99.2,0,56345,3759.2,32254,22574
4,69,99.2,0,57015,3759.2,32068,22418
4,69,99.2,0,57804,3759.2,31933,22283
4,69,99.2,0,58699,3759.2,31777,22140
4,69,99.2,0,59679,3759.2,31563,21961
4,69,99.2,0,60725,3759.2,31280,21742
4,69,99.2,0,61809,3759.2,30945,21491
4,69,99.2,0,62258,3759.2,30572,21203
4,69,99.2,0,62258,3759.2,30138,20876
4,69,99.2,0,62258,3759.2,29685,20542
4,69,99.2,0,62258,3759.2,29309,20266
4,69,99.2,0,62474,3759.2,28961,20001
4,69,99.2,0,63742,3759.2,28634,19749
4,69,99.2,0,65058,3759.2,28322,19513
4,69,99.2,0,65535,3759.2,28025,19291
4,69,99.2,0,65535,3759.2,27766,19100
4,69,99.2,0,65535,3759.2,27545,18928
4,69,99.2,0,65535,3759.2,27344,18764
4,69,99.2,0,65535,3759.2,27169,18617
4,69,99.2,0,65535,3759.2,27012,18482
4,69,99.2,0,65535,3759.2,26877,18366
4,69,99.2,0,65535,3759.2,26737,18247
4,69,99.2,0,65535,3759.2,26582,18124
4,69,99.2,0,65535,3759.2,26420,17995
4,69,99.2,0,65535,3759.2,26259,17866
4,69,99.2,0,65535,3759.2,26087,17732
4,69,99.2,0,65535,3759.2,25867,17574
4,69,99.2,0,65535,3759.2,25640,17412
4,69,99.2,0,65535,3759.2,25431,17260
4,69,99.2,0,65535,3759.2,25229,17110
4,69,99.2,0,65535,3759.2,25007,16950
4,69,99.2,0,65535,3759.2,24772,16788
4,69,99.2,0,65535,3759.2,24535,16622
4,255,12.7,0,31557,3768.9,58468,46033
4,255,12.7,0,31394,3768.9,58485,46055
4,255,12.7,0,31243,3768.9,58504,46078
4,255,12.7,0,31101,3768.9,58526,46101
4,255,12.7,0,30971,3768.9,58551,46126
4,255,12.7,0,30850,3768.9,58580,46152
4,255,12.7,0,30745,3768.9,58613,46184
4,255,12.7,0,30646,3768.9,58647,46214
4,255,12.7,0,30549,3768.9,58689,46249
4,255,12.7,0,30456,3768.9,58731,46283
4,255,12.7,0,30365,3768.9,58768,46313
4,255,12.7,0,30271,3768.9,58805,46341
4,255,12.7,0,30173,3768.9,58836,46370
4,255,12.7,0,30069,3768.9,58874,46406
4,255,12.7,0,29954,3768.9,58901,46433
4,255,12.7,0,29833,3768.9,58937,46461
4,255,12.7,0,29705,3768.9,58966,46493
4,255,12.7,0,29566,3768.9,58995,46519
4,255,12.7,0,29421,3768.9,59017,46546
4,255,12.7,0,29272,3768.9,59046,46572
4,255,12.7,0,29119,3768.9,59068,46596
4,255,12.7,0,28962,3768.9,59095,46622
4,255,12.7,0,28809,3768.9,59114,46646
4,255,12.7,0,28654,3768.9,59136,46672
4,255,12.7,0,28503,3768.9,59154,46694
4,255,12.7,0,28361,3768.9,59174,46718
4,255,12.7,0,28222,3768.9,59196,46741
4,255,12.7,0,28092,3768.9,59211,46754
4,255,12.7,0,27965,3768.9,59219,46772
4,255,12.7,0,27851,3768.9,59230,46787
4,255,12.7,0,27747,3768.9,59233,46791
4,255,12.7,0,27649,3768.9,59225,46771
4,255,12.7,0,27561,3768.9,59203,46734
4,255,12.7,0,27489,3768.9,59164,46671
4,255,12.7,0,27431,3768.9,59097,46550
4,255,12.7,0,27399,3768.9,58968,46326
4,255,12.7,0,27400,3768.9,58774,46004
4,255,12.7,0,27452,3768.9,58554,45667
4,255,12.7,0,27584,3768.9,58387,45419
4,255,12.7,0,27818,3768.9,58282,45267
4,255,12.7,0,28180,3768.9,58224,45182
4,255,12.7,0,28682,3768.9,58197,45155
4,255,12.7,0,29334,3768.9,58196,45156
4,255,12.7,0,30128,3768.9,58208,45178
4,255,12.7,0,31039,3768.9,58230,45216
4,255,12.7,0,32036,3768.9,58256,45261
4,255,12.7,0,33080,3768.9,58282,45303
4,255,12.7,0,34122,3768.9,58310,45348
4,255,12.7,0,35124,3768.9,58338,45384
4,255,12.7,0,36039,3768.9,58362,45413
4,255,12.7,0,36838,3768.9,58380,45431
4,255,12.7,0,37491,3768.9,58389,45440
4,255,12.7,8,37984,3768.9,58396,45446
4,255,12.7,0,38313,3768.9,58400,45459
4,255,12.7,0,38478,3768.9,58414,45477
4,255,12.7,0,38497,3768.9,58428,45498
4,255,12.7,0,38385,3768.9,58449,45526
4,255,12.7,0,38165,3768.9,58476,45556
4,255,12.7,0,37861,3768.9,58499,45583
4,255,12.7,0,37490,3768.9,58519,45600
4,255,12.7,0,37083,3768.9,58533,45619
4,255,12.7,0,36653,3768.9,58545,45630
4,255,12.7,0,36229,3768.9,58547,45633
4,255,12.7,0,35822,3768.9,58556,45636
4,255,12.7,0,35437,3768.9,58565,45640
4,255,12.7,0,35094,3768.9,58574,45650
4,255,12.7,0,34791,3768.9,58583,45662
4,255,12.7,0,34537,3768.9,58600,45676
4,255,12.7,0,34331,3768.9,58615,45698
4,255,12.7,0,34168,3768.9,58626,45719
4,255,12.7,0,34039,3768.9,58639,45748
4,255,12.7,0,33949,3768.9,58655,45782
4,255,12.7,0,33880,3768.9,58677,45820
4,255,12.7,0,33821,3768.9,58697,45863
4,255,12.7,0,28809,3768.9,59114,46646
4,255,12.7,0,28654,3768.9,59136,46672
4,255,12.7,0,28503,3768.9,59154,46694
4,255,12.7,0,28361,3768.9,59174,46718
4,255,12.7,0,28222,3768.9,59196,46741
4,255,12.7,0,28092,3768.9,59211,46754
4,255,12.7,0,27965,3768.9,59219,46772
4,255,12.7,0,27851,3768.9,59230,46787
4,255,12.7,0,27747,3768.9,59233,46791
4,255,12.7,0,27649,3768.9,59225,46771
4,255,12.7,0,27561,3768.9,59203,46734
4,255,12.7,0,27489,3768.9,59164,46671
4,255,12.7,0,27431,3768.9,59097,46550
4,255,12.7,0,27399,3768.9,58968,46326
4,255,12.7,0,27400,3768.9,58774,46004
4,255,12.7,0,27452,3768.9,58554,45667
4,255,12.7,0,27584,3768.9,58387,45419
4,255,12.7,0,27818,3768.9,58282,45267
4,255,12.7,0,28180,3768.9,58224,45182
4,255,12.7,0,28682,3768.9,58197,45155
4,255,12.7,0,29334,3768.9,58196,45156
4,255,12.7,0,30128,3768.9,58208,45178
4,255,12.7,0,31039,3768.9,58230,45216
4,255,12.7,0,32036,3768.9,58256,45261
4,255,12.7,0,33080,3768.9,58282,45303
4,255,12.7,0,34122,3768.9,58310,45348
4,255,12.7,0,35124,3768.9,58338,45384
4,255,12.7,0,36039,3768.9,58362,45413
4,255,12.7,0,36838,3768.9,58380,45431
4,255,12.7,0,37491,3768.9,58389,45440
4,255,12.7,8,37984,3768.9,58396,45446
4,255,12.7,0,38313,3768.9,58400,45459
4,255,12.7,0,38478,3768.9,58414,45477
4,255,12.7,0,38497,3768.9,58428,45498
4,255,12.7,0,38385,3768.9,58449,45526
4,255,12.7,0,38165,3768.9,58476,45556
4,255,12.7,0,37861,3768.9,58499,45583
4,255,12.7,0,37490,3768.9,58519,45600
4,255,12.7,0,37083,3768.9,58533,45619
4,255,12.7,0,36653,3768.9,58545,45630
4,255,12.7,0,36229,3768.9,58547,45633
4,255,12.7,0,35822,3768.9,58556,45636
4,255,12.7,0,35437,3768.9,58565,45640
4,255,12.7,0,35094,3768.9,58574,45650
4,255,12.7,0,34791,3768.9,58583,45662
4,255,12.7,0,34537,3768.9,58600,45676
4,255,12.7,0,34331,3768.9,58615,45698
4,255,12.7,0,34168,3768.9,58626,45719
4,255,12.7,0,34039,3768.9,58639,45748
4,255,12.7,0,33949,3768.9,58655,45782
4,255,12.7,0,33880,3768.9,58677,45820
4,255,12.7,0,33821,3768.9,58697,45863
4,255,12.7,0,33766,3768.9,58719,45905
4,255,12.7,0,33707,3768.9,58745,45949
4,255,12.7,0,33637,3768.9,58768,45995
4,255,12.7,0,33548,3768.9,58791,46041
4,255,12.7,0,33438,3768.9,58814,46083
4,255,12.7,0,33291,3768.9,58835,46120
4,255,12.7,0,33118,3768.9,58849,46153
4,255,12.7,0,32909,3768.9,58860,46184
4,255,12.7,0,32672,3768.9,58872,46211
4,255,12.7,0,32414,3768.9,58884,46237
4,255,12.7,0,32132,3768.9,58887,46257
4,255,12.7,0,31842,3768.9,58894,46277
4,255,12.7,0,31543,3768.9,58903,46300
4,255,12.7,0,31247,3768.9,58913,46323
4,255,12.7,0,30950,3768.9,58922,46343
4,255,12.7,0,30667,3768.9,58932,46364
4,255,12.7,0,30404,3768.9,58944,46389
4,255,12.7,0,30163,3768.9,58954,46407
4,255,12.7,0,29944,3768.9,58967,46426
4,255,12.7,0,29742,3768.9,58976,46446
4,255,12.7,0,29566,3768.9,58984,46461
4,255,12.7,0,29415,3768.9,58994,46485
4,255,12.7,0,29278,3768.9,59010,46507
4,255,12.7,0,29164,3768.9,59027,46529
4,255,12.7,0,29064,3768.9,59045,46550
4,255,12.7,0,28971,3768.9,59064,46575
4,255,12.7,0,28889,3768.9,59079,46599
4,255,12.7,0,28808,3768.9,59097,46621
4,255,12.7,0,28733,3768.9,59120,46643
4,255,12.7,0,28658,3768.9,59138,46668
4,255,12.7,0,28583,3768.9,59151,46692
4,255,12.7,0,28504,3768.9,59168,46712
4,255,12.7,0,28417,3768.9,59180,46735
4,255,12.7,0,28326,3768.9,59191,46753
4,255,12.7,0,28231,3768.9,59201,46776
4,255,12.7,0,28128,3768.9,59211,46795
4,255,12.7,0,28021,3768.9,59225,46815
4,255,12.7,0,27913,3768.9,59233,46832
4,255,12.7,0,27802,3768.9,59249,46857
4,71,97.8,0,27690,3768.9,59259,46873
4,71,97.8,0,27582,3768.9,59264,46885
4,71,97.8,0,27477,3768.9,59261,46899
4,71,97.8,0,27376,3768.9,59258,46910
4,71,97.8,0,27282,3768.9,59258,46924
4,71,97.8,0,27192,3768.9,59254,46931
4,71,97.8,0,27113,3768.9,59248,46936
4,71,97.8,0,27038,3768.9,59240,46936
4,71,97.8,0,26974,3768.9,59230,46920
4,71,97.8,0,26918,3768.9,59212,46893
4,71,97.8,0,26882,3768.9,59180,46836
4,71,97.8,0,26861,3768.9,59116,46728
4,71,97.8,0,26863,3768.9,58998,46523
4,71,97.8,0,26901,3768.9,58806,46213
4,71,97.8,0,26993,3768.9,58576,45867
4,71,97.8,0,27165,3768.9,58399,45608
4,71,97.8,0,27444,3768.9,58280,45442
4,71,97.8,0,27869,3768.9,58210,45353
4,71,97.8,0,28446,3768.9,58168,45310
4,71,97.8,0,29191,3768.9,58159,45308
4,71,97.8,0,30101,3768.9,58168,45332
4,71,97.8,0,31149,3768.9,58185,45365
4,71,97.8,0,32293,3768.9,58203,45410
4,71,97.8,0,33497,3768.9,58228,45455
4,71,97.8,0,34706,3768.9,58255,45500
4,71,97.8,0,35871,3768.9,58279,45541
4,71,97.8,0,36943,3768.9,58301,45575
4,71,97.8,0,37882,3768.9,58321,45601
4,71,97.8,0,38651,3768.9,58328,45622
4,71,97.8,0,39233,3768.9,58341,45635
4,71,97.8,8,39630,3768.9,58348,45649
4,71,97.8,0,39831,3768.9,58355,45667
4,71,97.8,0,39854,3768.9,58363,45694
4,71,97.8,0,39714,3768.9,58370,45715
4,71,97.8,0,39445,3768.9,58377,45737
4,71,97.8,0,39068,3768.9,58381,45754
4,71,97.8,0,38618,3768.9,58381,45768
4,71,97.8,0,38117,3768.9,58383,45782
4,71,97.8,0,37595,3768.9,58386,45786
4,71,97.8,0,37071,3768.9,58380,45788
4,71,97.8,0,36569,3768.9,58374,45783
4,71,97.8,0,36108,3768.9,58366,45778
4,71,97.8,0,35698,3768.9,58355,45775
4,71,97.8,0,35348,3768.9,58346,45773
4,71,97.8,0,35060,3768.9,58337,45772
4,71,97.8,0,34836,3768.9,58337,45784
4,71,97.8,0,34670,3768.9,58345,45802
4,71,97.8,0,34557,3768.9,58356,45825
4,71,97.8,0,34498,3768.9,58368,45852
4,71,97.8,0,34472,3759.2,58380,45884
4,71,97.8,0,34471,3759.2,58396,45924
4,71,97.8,0,34483,3759.2,58414,45960
4,71,97.8,0,34495,3759.2,58419,45992
4,71,97.8,0,34489,3759.2,58433,46028
4,71,97.8,0,34459,3759.2,58445,46057
4,71,97.8,0,34395,3759.2,58468,46096
4,71,97.8,0,34296,3759.2,58486,46125
4,71,97.8,0,34160,3759.2,58502,46157
4,71,97.8,0,33980,3759.2,58519,46183
4,71,97.8,0,33770,3759.2,58535,46210
4,71,97.8,0,33525,3759.2,58550,46235
4,71,97.8,0,33253,3759.2,58560,46256
4,71,97.8,0,32959,3759.2,58577,46282
4,71,97.8,0,32651,3759.2,58600,46304
4,71,97.8,0,32338,3759.2,58619,46328
4,71,97.8,0,32023,3759.2,58640,46357
4,71,97.8,0,31716,3759.2,58660,46378
4,71,97.8,0,31421,3759.2,58678,46401
4,71,97.8,0,31137,3759.2,58695,46421
4,71,97.8,0,30870,3759.2,58712,46446
4,71,97.8,0,30628,3759.2,58728,46473
4,71,97.8,0,30402,3759.2,58752,46498
4,71,97.8,0,30193,3759.2,58778,46527
4,71,97.8,0,30005,3759.2,58805,46553
4,71,97.8,0,29830,3759.2,58828,46575
4,71,97.8,0,29667,3759.2,58844,46597
4,71,97.8,0,29508,3759.2,58858,46618
4,71,97.8,0,29361,3759.2,58873,46636
4,71,97.8,0,29219,3759.2,58894,46662
4,71,97.8,0,29076,3759.2,58907,46685
4,71,97.8,0,28933,3759.2,58921,46708
4,71,97.8,0,28794,3759.2,58932,46727
4,71,97.8,0,28649,3759.2,58946,46747
4,71,97.8,0,28505,3759.2,58956,46767
4,71,97.8,0,28360,3759.2,58966,46789
4,71,97.8,0,28219,3759.2,58972,46805
4,71,97.8,0,28082,3759.2,58977,46820
4,71,97.8,0,27944,3759.2,58977,46833
4,71,97.8,0,27806,3759.2,58979,46850
4,71,97.8,0,27677,3759.2,58985,46869
4,71,97.8,0,27552,3759.2,58993,46891
4,71,97.8,0,27431,3759.2,59000,46910
4,71,97.8,0,27319,3759.2,59011,46932
4,71,97.8,0,27215,3759.2,59014,46944
4,71,97.8,0,27116,3759.2,59017,46951
4,71,97.8,0,27025,3759.2,59011,46943
4,71,97.8,0,26939,3759.2,58989,46917
4,71,97.8,0,26862,3759.2,58961,46868
4,71,97.8,0,26798,3759.2,58906,46773
4,71,97.8,0,26752,3759.2,58807,46599
4,69,98.5,0,26738,3759.2,58636,46320
4,69,98.5,0,26778,3759.2,58410,45972
4,69,98.5,0,26902,3759.2,58220,45698
4,69,98.5,0,27145,3759.2,58100,45517
4,69,98.5,0,27535,3759.2,58029,45417
4,69,98.5,0,28115,3759.2,58000,45379
4,69,98.5,0,28886,3759.2,57999,45382
4,69,98.5,0,29844,3759.2,58019,45412
4,69,98.5,0,30972,3759.2,58041,45450
4,69,98.5,0,32229,3759.2,58068,45497
4,69,98.5,0,33566,3759.2,58100,45545
4,69,98.5,0,34916,3759.2,58117,45585
4,69,98.5,0,36230,3759.2,58134,45623
4,69,98.5,0,37445,3759.2,58150,45653
4,69,98.5,0,38514,3759.2,58160,45676
4,69,98.5,0,39398,3759.2,58170,45696
4,69,98.5,0,40079,3759.2,58176,45711
4,69,98.5,8,40541,3759.2,58183,45728
4,69,98.5,0,40783,3759.2,58194,45753
4,69,98.5,0,40822,3759.2,58201,45770
4,69,98.5,0,40683,3759.2,58205,45792
4,69,98.5,0,40392,3759.2,58206,45808
4,69,98.5,0,39973,3759.2,58208,45813
4,69,98.5,0,39468,3759.2,58200,45814
4,69,98.5,0,38909,3759.2,58201,45816
4,69,98.5,0,38324,3759.2,58194,45814
4,69,98.5,0,37743,3759.2,58190,45802
4,69,98.5,0,37193,3759.2,58188,45794
4,69,98.5,0,36690,3759.2,58180,45785
4,69,98.5,0,36251,3759.2,58172,45780
4,69,98.5,0,35888,3759.2,58169,45785
4,69,98.5,0,35606,3759.2,58171,45797
4,69,98.5,0,35399,3759.2,58181,45810
4,69,98.5,0,35264,3759.2,58201,45838
4,69,98.5,0,35191,3759.2,58220,45869
4,69,98.5,0,35167,3759.2,58239,45901
4,69,98.5,0,35181,3759.2,58259,45937
4,69,98.5,0,35209,3759.2,58284,45983
4,69,98.5,0,35238,3759.2,58308,46020
4,69,98.5,0,35248,3759.2,58328,46058
4,69,98.5,0,35228,3759.2,58352,46097
4,69,98.5,0,35174,3759.2,58373,46131
4,69,98.5,0,35070,3759.2,58388,46159
4,69,98.5,0,34917,3759.2,58415,46198
4,69,98.5,0,34705,3759.2,58437,46229
4,69,98.5,0,34447,3759.2,58461,46262
4,69,98.5,0,34144,3759.2,58483,46288
4,69,98.5,0,33801,3759.2,58501,46314
4,69,98.5,0,33426,3759.2,58516,46339
4,69,98.5,0,33030,3759.2,58526,46357
4,69,98.5,0,32618,3759.2,58538,46380
4,69,98.5,0,32204,3759.2,58550,46403
4,69,98.5,0,31798,3759.2,58561,46421
4,69,98.5,0,31411,3759.2,58579,46447
4,69,98.5,0,31042,3759.2,58586,46463
4,69,98.5,0,30708,3759.2,58598,46482
4,69,98.5,0,30392,3759.2,58609,46497
4,69,98.5,0,30115,3759.2,58620,46516
4,69,98.5,0,29863,3759.2,58626,46529
4,69,98.5,0,29640,3759.2,58632,46549
4,69,98.5,0,29442,3759.2,58647,46569
4,69,98.5,0,29274,3759.2,58664,46585
4,69,98.5,0,29126,3759.2,58680,46612
4,69,98.5,0,28997,3759.2,58700,46632
4,69,98.5,0,28873,3759.2,58721,46655
4,69,98.5,0,28759,3759.2,58736,46678
4,69,98.5,0,28650,3759.2,58753,46695
4,69,98.5,0,28545,3759.2,58772,46714
4,69,98.5,0,28440,3759.2,58785,46739
4,69,98.5,0,28325,3759.2,58798,46761
4,69,98.5,0,28209,3759.2,58812,46781
4,69,98.5,0,28083,3759.2,58831,46803
4,69,98.5,0,27951,3759.2,58846,46820
4,69,98.5,0,27813,3759.2,58863,46843
4,69,98.5,0,27665,3759.2,58873,46864
4,69,98.5,0,27522,3759.2,58890,46884
4,69,98.5,0,27367,3759.2,58909,46908
4,69,98.5,0,27213,3759.2,58917,46920
4,69,98.5,0,27057,3759.2,58933,46938
4,69,98.5,0,26907,3759.2,58940,46946
4,69,98.5,0,26756,3759.2,58942,46942
4,69,98.5,0,26605,3759.2,58932,46913
4,69,98.5,0,26469,3759.2,58904,46852
4,69,98.5,0,26349,3759.2,58837,46728
4,69,98.5,0,26255,3759.2,58706,46495
4,69,98.5,0,26213,3759.2,58502,46154
4,69,98.5,0,26240,3759.2,58291,45827
4,69,98.5,0,26389,3759.2,58136,45594
4,69,98.5,0,26702,3759.2,58045,45448
4,69,98.5,0,27213,3759.2,57999,45378
4,69,98.5,0,27955,3759.2,57983,45350
4,69,98.5,0,28928,3759.2,57987,45355
4,69,98.5,0,30123,3759.2,58003,45377
4,69,98.5,0,31504,3759.2,58028,45412
4,69,98.5,0,33024,3759.2,58058,45447
4,69,98.5,0,34615,3759.2,58081,45484
4,69,98.5,0,36212,3759.2,58103,45510
4,69,98.5,0,37738,3759.2,58120,45534
4,69,98.5,0,39139,3759.2,58132,45541
4,69,98.5,0,40359,3759.2,58137,45545
4,69,98.9,0,41361,3759.2,58137,45536
4,69,98.9,0,42132,3759.2,58134,45530
4,69,98.9,8,42655,3759.2,58132,45531
4,69,98.9,0,42951,3759.2,58138,45537
4,69,98.9,0,43029,3759.2,58147,45551
4,69,98.9,0,42917,3759.2,58165,45573
4,69,98.9,0,42657,3759.2,58176,45594
4,69,98.9,0,42277,3759.2,58189,45609
4,69,98.9,0,41803,3759.2,58188,45618
4,69,98.9,0,41278,3759.2,58192,45624
4,69,98.9,0,40736,3759.2,58191,45624
4,69,98.9,0,40193,3759.2,58190,45622
4,69,98.9,0,39676,3759.2,58181,45607
4,69,98.9,0,39196,3759.2,58166,45596
4,69,98.9,0,38764,3759.2,58150,45586
4,69,98.9,0,38403,3759.2,58127,45575
4,69,98.9,0,38113,3759.2,58105,45567
4,69,98.9,0,37894,3759.2,58093,45571
4,69,98.9,0,37741,3759.2,58065,45576
4,69,98.9,0,37644,3759.2,58053,45586
4,69,98.9,0,37602,3759.2,58041,45604
4,69,98.9,0,37599,3759.2,58029,45622
4,69,98.9,0,37623,3759.2,58021,45648
4,69,98.9,0,37659,3759.2,58011,45669
4,69,98.9,0,37696,3759.2,58010,45694
4,69,98.9,0,37721,3759.2,58015,45724
4,69,98.9,0,37718,3759.2,58044,45767
4,69,98.9,0,37686,3759.2,58087,45824
4,69,98.9,0,37604,3759.2,58149,45884
4,69,98.9,0,37476,3759.2,58201,45944
4,69,98.9,0,37291,3759.2,58256,46000
4,69,98.9,0,37043,3759.2,58297,46049
4,69,98.9,0,36738,3759.2,58343,46092
4,69,98.9,0,36357,3759.2,58375,46129
4,69,98.9,0,35918,3759.2,58398,46158
4,69,98.9,0,35432,3759.2,58413,46183
4,69,98.9,0,34898,3759.2,58425,46201
4,69,98.9,0,34328,3759.2,58432,46218
4,69,98.9,0,33745,3759.2,58443,46239
4,69,98.9,0,33153,3759.2,58463,46263
4,69,98.9,0,32571,3759.2,58480,46285
4,69,98.9,0,32009,3759.2,58503,46308
4,69,98.9,0,31486,3759.2,58520,46331
4,69,98.9,0,31002,3759.2,58540,46355
4,69,98.9,0,30562,3759.2,58567,46383
4,69,98.9,0,30168,3759.2,58586,46403
4,69,98.9,0,29818,3759.2,58604,46422
4,69,98.9,0,29515,3759.2,58623,46442
4,69,98.9,0,29251,3759.2,58644,46464
4,69,98.9,0,29022,3759.2,58660,46489
4,69,98.9,0,28822,3759.2,58676,46510
4,69,98.9,0,28638,3759.2,58691,46523
4,69,98.9,0,28478,3759.2,58717,46547
4,69,98.9,0,28329,3759.2,58733,46571
4,69,98.9,0,28185,3759.2,58746,46595
4,69,98.9,0,28047,3759.2,58765,46615
4,69,98.9,0,27903,3759.2,58783,46642
4,69,98.9,0,27752,3759.2,58801,46660
4,69,98.9,0,27595,3759.2,58816,46681
4,69,98.9,0,27431,3759.2,58832,46702
4,69,98.9,0,27261,3759.2,58839,46721
4,69,98.9,0,27079,3759.2,58859,46740
4,69,98.9,0,26902,3759.2,58876,46765
4,69,98.9,0,26718,3759.2,58893,46785
4,69,98.9,0,26534,3759.2,58911,46811
4,69,98.9,0,26344,3759.2,58936,46828
4,69,98.9,0,26165,3759.2,58942,46833
4,69,98.9,0,25979,3759.2,58933,46818
4,69,98.9,0,25800,3759.2,58909,46774
4,69,98.9,0,25637,3759.2,58855,46683
4,69,98.9,0,25493,3759.2,58753,46497
4,69,98.9,0,25391,3759.2,58581,46198
4,69,98.9,0,25362,3759.2,58350,45835
4,69,98.9,0,25442,3759.2,58162,45550
4,69,98.9,0,25688,3759.2,58043,45357
4,69,98.9,0,26148,3759.2,57968,45248
4,69,98.9,0,26867,3759.2,57936,45196
4,69,98.9,0,27864,3759.2,57933,45188
4,69,98.9,0,29140,3759.2,57937,45199
4,69,98.9,0,30661,3759.2,57957,45221
4,69,98.9,0,32378,3759.2,57969,45253
4,69,98.9,0,34226,3759.2,57985,45276
4,69,98.9,0,36130,3759.2,58003,45297
4,69,98.9,0,38003,3759.2,58013,45313
4,69,98.9,0,39757,3759.2,58019,45318
4,69,98.9,0,41341,3759.2,58018,45318
4,69,98.9,0,42699,3759.2,58015,45311
4,69,98.9,0,43803,3759.2,57998,45292
4,69,98.9,0,44628,3759.2,57988,45281
4,69,98.9,8,45180,3759.2,57987,45275
4,69,98.9,0,45469,3759.2,57998,45289
4,69,98.9,0,45534,3759.2,58010,45305
4,69,98.9,0,45397,3759.2,58023,45326
4,69,98.9,0,45104,3759.2,58041,45347
4,69,98.9,0,44691,3759.2,58051,45363
4,69,98.9,0,44189,3759.2,58060,45371
4,69,98.9,0,43636,3759.2,58062,45375
4,69,98.9,0,43063,3759.2,58056,45372
4,69,98.9,0,42488,3759.2,58051,45359
4,69,98.9,0,41945,3759.2,58041,45345
4,69,99.3,0,41450,3759.2,58032,45340
4,69,99.3,0,41006,3759.2,58028,45339
4,69,99.3,0,40624,3759.2,58031,45341
4,69,99.3,0,40317,3759.2,58038,45350
4,69,99.3,0,40080,3759.2,58049,45365
4,69,99.3,0,39899,3759.2,58060,45383
4,69,99.3,0,39769,3759.2,58074,45404
4,69,99.3,0,39677,3759.2,58093,45426
4,69,99.3,0,39617,3759.2,58109,45454
4,69,99.3,0,39570,3759.2,58131,45487
4,69,99.3,0,39522,3759.2,58151,45522
4,69,99.3,0,39462,3759.2,58166,45552
4,69,99.3,0,39369,3759.2,58193,45594
4,69,99.3,0,39237,3759.2,58215,45625
4,69,99.3,0,39059,3759.2,58239,45663
4,69,99.3,0,38823,3759.2,58267,45703
4,69,99.3,0,38534,3759.2,58288,45736
4,69,99.3,0,38192,3759.2,58311,45773
4,69,99.3,0,37797,3759.2,58331,45804
4,69,99.3,0,37355,3759.2,58351,45832
4,69,99.3,0,36872,3759.2,58369,45858
4,69,99.3,0,36356,3759.2,58384,45882
4,69,99.3,0,35817,3759.2,58392,45900
4,69,99.3,0,35271,3759.2,58408,45920
4,69,99.3,0,34716,3759.2,58418,45948
4,69,99.3,0,34172,3759.2,58429,45968
4,69,99.3,0,33646,3759.2,58436,45991
4,69,99.3,0,33144,3759.2,58444,46009
4,69,99.3,0,32674,3759.2,58443,46022
4,69,99.3,0,32229,3759.2,58446,46036
4,69,99.3,0,31821,3759.2,58447,46049
4,69,99.3,0,31452,3759.2,58449,46065
4,69,99.3,0,31129,3759.2,58454,46082
4,69,99.3,0,30838,3759.2,58459,46096
4,69,99.3,0,30579,3759.2,58468,46114
4,69,99.3,0,30360,3759.2,58480,46134
4,69,99.3,0,30160,3759.2,58483,46153
4,69,99.3,0,29974,3759.2,58493,46176
4,69,99.3,0,29806,3759.2,58505,46197
4,69,99.3,0,29652,3759.2,58520,46219
4,69,99.3,0,29491,3759.2,58538,46239
4,69,99.3,0,29342,3759.2,58555,46266
4,69,99.3,0,29186,3759.2,58571,46290
4,69,99.3,0,29023,3759.2,58585,46304
4,69,99.3,0,28853,3759.2,58599,46326
4,69,99.3,0,28682,3759.2,58623,46346
4,69,99.3,0,28483,3759.2,58630,46366
4,69,99.3,0,28277,3759.2,58641,46377
4,69,99.3,0,28070,3759.2,58647,46401
4,69,99.3,0,27849,3759.2,58663,46420
4,69,99.3,0,27633,3759.2,58683,46444
4,69,99.3,0,27411,3759.2,58699,46471
4,69,99.3,0,27188,3759.2,58717,46488
4,69,99.3,0,26964,3759.2,58732,46514
4,69,99.3,0,26746,3759.2,58746,46536
4,69,99.3,0,26528,3759.2,58758,46548
4,69,99.3,0,26310,3759.2,58773,46561
4,69,99.3,0,26097,3759.2,58781,46561
4,69,99.3,0,25891,3759.2,58772,46539
4,69,99.3,0,25692,3759.2,58746,46482
4,69,99.3,0,25513,3759.2,58679,46347
4,69,99.3,0,25369,3759.2,58543,46104
4,69,99.3,0,25288,3759.2,58336,45760
4,69,99.3,0,25305,3759.2,58139,45450
4,69,99.3,0,25463,3759.2,57999,45226
4,69,99.3,0,25848,3759.2,57913,45081
4,69,99.3,0,26495,3759.2,57869,45011
4,69,99.3,0,27448,3759.2,57861,44983
4,69,99.3,0,28709,3759.2,57862,44985
4,69,99.3,0,30258,3759.2,57877,45005
4,69,99.3,0,32062,3759.2,57898,45032
4,69,99.3,0,34044,3759.2,57929,45069
4,69,99.3,0,36126,3759.2,57954,45103
4,69,99.3,0,38215,3759.2,57977,45130
4,69,99.3,0,40217,3759.2,57988,45144
4,69,99.3,0,42058,3759.2,57995,45148
4,69,99.3,0,43659,3759.2,57993,45144
4,69,99.3,0,44989,3759.2,57982,45126
4,69,99.3,0,46005,3759.2,57984,45121
4,69,99.3,8,46711,3759.2,57989,45120
4,69,99.3,0,47115,3759.2,57991,45135
4,69,99.3,0,47246,3759.2,58003,45146
4,69,99.3,0,47130,3759.2,58011,45162
4,69,99.3,0,46812,3759.2,58019,45173
4,69,99.3,0,46334,3759.2,58025,45185
4,69,99.3,0,45753,3759.2,58024,45185
4,69,99.3,0,45092,3759.2,58021,45174
4,69,99.3,0,44409,3759.2,58012,45168
4,69,99.3,0,43738,3759.2,57996,45152
4,69,99.3,0,43089,3759.2,57983,45139
4,69,99.3,0,42511,3759.2,57961,45118
4,69,99.3,0,42004,3759.2,57949,45108
4,69,99.3,0,41585,3759.2,57939,45102
4,69,99.3,0,41268,3759.2,57937,45106
4,69,99.3,0,41037,3759.2,57940,45119
4,69,99.3,0,40895,3759.2,57951,45138
4,69,99.3,0,40825,3759.2,57963,45158
4,69,99.3,0,40808,3759.2,57974,45182
4,69,99.3,0,40841,3759.2,57990,45218
4,69,99.3,0,40883,3759.2,58018,45257
4,68,99.4,0,40931,3759.2,58049,45294
4,68,99.4,0,40950,3759.2,58073,45330
4,68,99.4,0,40918,3759.2,58089,45362
4,68,99.4,0,40825,3759.2,58100,45391
4,68,99.4,0,40673,3759.2,58118,45424
4,68,99.4,0,40431,3759.2,58146,45460
4,68,99.4,0,40113,3759.2,58177,45504
4,68,99.4,0,39728,3759.2,58205,45541
4,68,99.4,0,39266,3759.2,58217,45576
4,68,99.4,0,38736,3759.2,58234,45607
4,68,99.4,0,38151,3759.2,58254,45636
4,68,99.4,0,37535,3759.2,58273,45670
4,68,99.4,0,36879,3759.2,58288,45694
4,68,99.4,0,36206,3759.2,58306,45717
4,68,99.4,0,35523,3759.2,58309,45736
4,68,99.4,0,34853,3759.2,58323,45761
4,68,99.4,0,34196,3759.2,58336,45780
4,68,99.4,0,33574,3759.2,58353,45805
4,68,99.4,0,32981,3759.2,58379,45835
4,68,99.4,0,32415,3759.2,58400,45856
4,68,99.4,0,31901,3759.2,58421,45881
4,68,99.4,0,31432,3759.2,58423,45900
4,68,99.4,0,30999,3759.2,58430,45918
4,68,99.4,0,30603,3759.2,58434,45935
4,68,99.4,0,30244,3759.2,58432,45951
4,68,99.4,0,29914,3759.2,58439,45969
4,68,99.4,0,29615,3759.2,58446,45989
4,68,99.4,0,29338,3759.2,58446,46002
4,68,99.4,0,29076,3759.2,58451,46023
4,68,99.4,0,28836,3759.2,58460,46040
4,68,99.4,0,28603,3759.2,58474,46066
4,68,99.4,0,28369,3759.2,58492,46091
4,68,99.4,0,28151,3759.2,58503,46112
4,68,99.4,0,27939,3759.2,58516,46135
4,68,99.4,0,27727,3759.2,58526,46153
4,68,99.4,0,27514,3759.2,58542,46176
4,68,99.4,0,27285,3759.2,58557,46199
4,68,99.4,0,27064,3759.2,58570,46216
4,68,99.4,0,26825,3759.2,58579,46234
4,68,99.4,0,26594,3759.2,58588,46255
4,68,99.4,0,26355,3759.2,58600,46275
4,68,99.4,0,26115,3759.2,58614,46296
4,68,99.4,0,25874,3759.2,58617,46316
4,68,99.4,0,25633,3759.2,58626,46334
4,68,99.4,0,25391,3759.2,58625,46334
4,68,99.4,0,25141,3759.2,58611,46314
4,68,99.4,0,24913,3759.2,58585,46263
4,68,99.4,0,24694,3759.2,58513,46138
4,68,99.4,0,24514,3759.2,58372,45905
4,68,99.4,0,24398,3759.2,58161,45565
4,68,99.4,0,24394,3759.2,57959,45257
4,68,99.4,0,24551,3759.2,57805,45027
4,68,99.4,0,24951,3759.2,57711,44887
4,68,99.4,0,25658,3759.2,57661,44807
4,68,99.4,0,26691,3759.2,57644,44778
4,68,99.4,0,28075,3759.2,57655,44789
4,68,99.4,0,29804,3759.2,57672,44806
4,68,99.4,0,31807,3759.2,57693,44836
4,68,99.4,0,34022,3759.2,57715,44865
4,68,99.4,0,36351,3759.2,57740,44893
4,68,99.4,0,38704,3759.2,57758,44914
4,68,99.4,0,40957,3759.2,57771,44933
4,68,99.4,0,43034,3759.2,57780,44938
4,68,99.4,0,44861,3759.2,57783,44936
4,68,99.4,0,46370,3759.2,57774,44923
4,68,99.4,0,47536,3759.2,57762,44915
4,68,99.4,8,48357,3759.2,57758,44916
4,68,99.4,0,48832,3759.2,57755,44919
4,68,99.4,0,49004,3759.2,57763,44936
4,68,99.4,0,48886,3759.2,57777,44964
4,68,99.4,0,48545,3759.2,57792,44988
4,68,99.4,0,48031,3759.2,57809,45017
4,68,99.4,0,47375,3759.2,57831,45048
4,68,99.4,0,46636,3759.2,57851,45070
4,68,99.4,0,45846,3759.2,57881,45097
4,68,99.4,0,45039,3759.2,57906,45117
4,68,99.4,0,44238,3759.2,57936,45139
4,68,99.4,0,43461,3759.2,57961,45152
4,68,99.4,0,42733,3759.2,57982,45162
4,68,99.4,0,42053,3759.2,58009,45177
4,68,99.4,0,41422,3759.2,58033,45193
4,68,99.4,0,40857,3759.2,58060,45216
4,68,99.4,0,40349,3759.2,58084,45241
4,68,99.4,0,39890,3759.2,58121,45274
4,68,99.4,0,39472,3759.2,58171,45322
4,68,99.4,0,39094,3759.2,58221,45373
4,68,99.4,0,38733,3759.2,58278,45427
4,68,99.4,0,38371,3759.2,58323,45478
4,68,99.4,0,37999,3759.2,58369,45527
4,68,99.4,0,37600,3759.2,58403,45567
4,68,99.4,0,37158,3759.2,58444,45611
4,68,99.4,0,36672,3759.2,58489,45658
4,68,99.4,0,36134,3759.2,58533,45707
4,68,99.4,0,35534,3759.2,58576,45757
4,68,99.4,0,34888,3759.2,58618,45804
4,68,99.4,0,34181,3759.2,58658,45851
4,68,99.4,0,33437,3759.2,58701,45905
4,68,99.4,0,32647,3759.2,58743,45953
4,68,99.4,0,31819,3759.2,58783,45999
4,68,99.4,0,30971,3759.2,58817,46044
4,68,99.5,0,30111,3759.2,58850,46087
4,68,99.5,0,29239,3759.2,58880,46121
4,68,99.5,0,28382,3759.2,58913,46155
4,68,99.5,0,27523,3759.2,58949,46191
4,68,99.5,0,26678,3759.2,58984,46227
4,68,99.5,0,25866,3759.2,59021,46256
4,68,99.5,0,25096,3759.2,59054,46281
4,68,99.5,0,24359,3759.2,59086,46313
4,68,99.5,0,23664,3759.2,59123,46342
4,68,99.5,0,23020,3759.2,59165,46376
4,68,99.5,0,22427,3759.2,59216,46399
4,68,99.5,0,21887,3759.2,59250,46428
4,68,99.5,0,21389,3759.2,59294,46462
4,68,99.5,0,20943,3759.2,59328,46503
4,68,99.5,0,20523,3759.2,59353,46542
4,68,99.5,0,20138,3759.2,59378,46578
4,68,99.5,0,19779,3759.2,59394,46607
4,68,99.5,0,19446,3759.2,59408,46631
4,68,99.5,0,19121,3759.2,59411,46647
4,68,99.5,0,18805,3759.2,59416,46654
4,68,99.5,0,18489,3759.2,59420,46660
4,68,99.5,0,18181,3759.2,59422,46671
4,68,99.5,0,17882,3759.2,59423,46680
4,68,99.5,0,17600,3759.2,59417,46691
4,68,99.5,0,17345,3759.2,59409,46697
4,68,99.5,0,17107,3759.2,59400,46705
4,68,99.5,0,16905,3759.2,59387,46710
4,68,99.5,0,16739,3759.2,59378,46715
4,68,99.5,0,16617,3759.2,59361,46715
4,68,99.5,0,16540,3759.2,59349,46714
4,68,99.5,0,16498,3759.2,59330,46714
4,68,99.5,0,16502,3759.2,59314,46711
4,68,99.5,0,16550,3759.2,59300,46712
4,68,99.5,0,16634,3759.2,59289,46708
4,68,99.5,0,16764,3759.2,59285,46720
4,68,99.5,0,16911,3759.2,59284,46726
4,68,99.5,0,17095,3759.2,59277,46723
4,68,99.5,0,17297,3759.2,59265,46717
4,68,99.5,0,17517,3759.2,59244,46697
4,68,99.5,0,17756,3759.2,59210,46640
4,68,99.5,0,18003,3759.2,59139,46506
4,68,99.5,0,18269,3759.2,58987,46244
4,68,99.5,0,18572,3759.2,58752,45864
4,68,99.5,0,18975,3759.2,58510,45491
4,68,99.5,0,19551,3759.2,58329,45210
4,68,99.5,0,20382,3759.2,58207,45019
4,68,99.5,0,21533,3759.2,58125,44894
4,68,99.5,0,23088,3759.2,58078,44817
4,68,99.5,0,25065,3759.2,58054,44787
4,68,99.5,0,27451,3759.2,58046,44778
4,68,99.5,0,30200,3759.2,58043,44783
4,68,99.5,0,33226,3759.2,58042,44797
4,68,99.5,0,36438,3759.2,58048,44812
4,68,99.5,0,39706,3759.2,58049,44821
4,68,99.5,0,42908,3759.2,58057,44832
4,68,99.5,0,45913,3759.2,58054,44820
4,68,99.5,0,48626,3759.2,58057,44813
4,68,99.5,0,50980,3759.2,58046,44788
4,68,99.5,0,52909,3759.2,58029,44761
4,68,99.5,0,54393,3759.2,58009,44730
4,68,99.5,8,55442,3759.2,57998,44708
4,68,99.5,0,56063,3759.2,57992,44708
4,68,99.5,0,56333,3759.2,57995,44716
4,68,99.5,0,56286,3759.2,58010,44738
4,68,99.5,0,55990,3759.2,58025,44753
4,68,99.5,0,55498,3759.2,58039,44768
4,68,99.5,0,54877,3759.2,58049,44776
4,68,99.5,0,54164,3759.2,58058,44782
4,68,99.5,0,53413,3759.2,58063,44784
4,68,99.5,0,52654,3759.2,58065,44781
4,68,99.5,0,51922,3759.2,58059,44771
4,68,99.5,0,51237,3759.2,58055,44761
4,68,99.5,0,50616,3759.2,58051,44757
4,68,99.5,0,50052,3759.2,58050,44756
4,68,99.5,0,49580,3759.2,58055,44758
4,68,99.5,0,49184,3759.2,58069,44764
4,68,99.5,0,48861,3759.2,58073,44774
4,68,99.5,0,48604,3759.2,58092,44795
4,68,99.5,0,48394,3759.2,58114,44818
4,68,99.5,0,48221,3759.2,58134,44844
4,68,99.5,0,48076,3759.2,58159,44868
4,68,99.5,0,47930,3759.2,58184,44900
4,68,99.5,0,47757,3759.2,58211,44933
4,68,99.5,0,47555,3759.2,58235,44966
4,68,99.5,0,47305,3759.2,58256,44999
4,68,99.5,0,46999,3759.2,58280,45032
4,68,99.5,0,46626,3759.2,58305,45066
4,68,99.5,0,46187,3759.2,58330,45093
4,68,99.5,0,45671,3759.2,58353,45118
4,68,99.5,0,45079,3759.2,58372,45139
4,68,99.5,0,44429,3759.2,58390,45161
4,68,99.5,0,43740,3759.2,58411,45182
4,68,99.5,0,42992,3759.2,58431,45206
4,68,99.5,0,42234,3759.2,58451,45227
4,68,99.5,0,41454,3759.2,58472,45252
4,68,99.5,0,40683,3759.2,58493,45274
4,68,99.5,0,39938,3759.2,58517,45299
4,68,99.5,0,39211,3759.2,58527,45313
4,68,99.5,0,38501,3759.2,58542,45331
4,68,99.5,0,37846,3759.2,58549,45343
4,68,99.3,0,37219,3759.2,58559,45354
4,68,99.3,0,36628,3759.2,58573,45372
4,68,99.3,0,36093,3759.2,58585,45388
4,68,99.3,0,35596,3759.2,58599,45411
4,68,99.3,0,35135,3759.2,58609,45439
4,68,99.3,0,34711,3759.2,58617,45461
4,68,99.3,0,34325,3759.2,58618,45485
4,68,99.3,0,33948,3759.2,58628,45510
4,68,99.3,0,33598,3759.2,58635,45536
4,68,99.3,0,33267,3759.2,58642,45564
4,68,99.3,0,32924,3759.2,58652,45586
4,68,99.3,0,32580,3759.2,58664,45612
4,68,99.3,0,32215,3759.2,58673,45638
4,68,99.3,0,31849,3759.2,58693,45668
4,68,99.3,0,31451,3759.2,58703,45694
4,68,99.3,0,31042,3759.2,58708,45719
4,68,99.3,0,30622,3759.2,58713,45738
4,68,99.3,0,30181,3759.2,58719,45762
4,68,99.3,0,29718,3759.2,58720,45781
4,68,99.3,0,29243,3759.2,58727,45802
4,68,99.3,0,28777,3759.2,58733,45824
4,68,99.3,0,28299,3759.2,58740,45843
4,68,99.3,0,27830,3759.2,58743,45863
4,68,99.3,0,27380,3759.2,58752,45882
4,68,99.3,0,26929,3759.2,58764,45904
4,68,99.3,0,26496,3759.2,58771,45927
4,68,99.3,0,26082,3759.2,58777,45943
4,68,99.3,0,25688,3759.2,58789,45962
4,68,99.3,0,25313,3759.2,58795,45977
4,68,99.3,0,24967,3759.2,58797,45992
4,68,99.3,0,24631,3759.2,58802,46013
4,68,99.3,0,24324,3759.2,58811,46028
4,68,99.3,0,24027,3759.2,58815,46047
4,68,99.3,0,23750,3759.2,58826,46068
4,68,99.3,0,23492,3759.2,58841,46084
4,68,99.3,0,23255,3759.2,58840,46090
4,68,99.3,0,23027,3759.2,58833,46080
4,68,99.3,0,22809,3759.2,58811,46041
4,68,99.3,0,22601,3759.2,58756,45944
4,68,99.3,0,22423,3759.2,58629,45730
4,68,99.3,0,22307,3759.2,58434,45400
4,68,99.3,0,22304,3759.2,58182,45025
4,68,99.3,0,22497,3759.2,57991,44734
4,68,99.3,0,22969,3759.2,57868,44553
4,68,99.3,0,23814,3759.2,57799,44443
4,68,99.3,0,25118,3759.2,57772,44397
4,68,99.3,0,26891,3759.2,57770,44387
4,68,99.3,0,29138,3759.2,57777,44398
4,68,99.3,0,31798,3759.2,57791,44415
4,68,99.3,0,34792,3759.2,57815,44444
4,68,99.3,0,38005,3759.2,57832,44468
4,68,99.3,0,41290,3759.2,57843,44484
4,68,99.3,0,44498,3759.2,57849,44496
4,68,99.3,0,47512,3759.2,57853,44498
4,68,99.3,0,50235,3759.2,57849,44494
4,68,99.3,0,52559,3759.2,57848,44484
4,68,99.3,0,54421,3759.2,57850,44470
4,68,99.3,0,55820,3759.2,57845,44461
4,68,99.3,8,56734,3759.2,57844,44457
4,68,99.3,0,57205,3759.2,57845,44461
4,68,99.3,0,57277,3759.2,57858,44475
4,68,99.3,0,57022,3759.2,57871,44494
4,68,99.3,0,56493,3759.2,57881,44512
4,68,99.3,0,55755,3759.2,57891,44529
4,68,99.3,0,54869,3759.2,57902,44541
4,68,99.3,0,53910,3759.2,57911,44552
4,68,99.3,0,52909,3759.2,57909,44556
4,68,99.3,0,51908,3759.2,57907,44552
4,68,99.3,0,50960,3759.2,57905,44548
4,68,99.3,0,50085,3759.2,57897,44538
4,68,99.3,0,49295,3759.2,57898,44536
4,68,99.3,0,48610,3759.2,57897,44535
4,68,99.3,0,48020,3759.2,57905,44551
4,68,99.3,0,47535,3759.2,57912,44565
4,68,99.3,0,47146,3759.2,57922,44586
4,68,99.3,0,46842,3759.2,57939,44609
4,68,99.3,0,46601,3759.2,57956,44632
4,68,99.3,0,46402,3759.2,57973,44663
4,68,99.3,0,46224,3759.2,57989,44689
4,68,99.3,0,46046,3759.2,58004,44719
4,68,99.3,0,45836,3759.2,58027,44753
4,68,99.3,0,45594,3759.2,58049,44794
4,68,99.3,0,45308,3759.2,58076,44837
4,68,99.3,0,44925,3759.2,58104,44877
4,68,99.3,0,44466,3759.2,58127,44916
4,68,99.3,0,43932,3759.2,58147,44957
4,68,99.3,0,43299,3759.2,58168,44992
4,68,99.3,0,42600,3759.2,58197,45033
4,68,99.3,0,41814,3759.2,58216,45067
4,68,99.3,0,40971,3759.2,58238,45100
4,68,99.3,0,40073,3759.2,58260,45128
4,68,99.3,0,39129,3759.2,58284,45156
4,68,99.3,0,38160,3759.2,58310,45184
4,68,99.3,0,37178,3759.2,58341,45214
4,68,99.3,0,36193,3759.2,58377,45251
4,68,99.3,0,35237,3759.2,58405,45283
4,68,99.3,0,34300,3759.2,58430,45309
4,68,99.3,0,33392,3759.2,58454,45340
4,68,99.3,0,32525,3759.2,58473,45367
4,68,99.3,0,31710,3759.2,58492,45390
4,68,99.3,0,30924,3759.2,58511,45415
4,68,99.3,0,30202,3759.2,58525,45440
4,68,99.3,0,29511,3759.2,58543,45464
4,68,99.3,0,28851,3759.2,58571,45498
4,68,99.3,0,28244,3759.2,58600,45526
4,68,99.3,0,27669,3759.2,58619,45554
4,68,99.3,0,27125,3759.2,58647,45588
4,68,99.3,0,26603,3759.2,58673,45623
4,68,99.3,0,26101,3759.2,58703,45656
4,68,99.3,0,25598,3759.2,58719,45683
4,68,99.3,0,25105,3759.2,58743,45706
4,68,99.3,0,24622,3759.2,58751,45729
4,68,99.3,0,24127,3759.2,58757,45750
4,68,99.3,0,23630,3759.2,58776,45774
4,68,99.3,0,23133,3759.2,58801,45802
4,68,99.3,0,22634,3759.2,58822,45831
4,68,99.3,0,22135,3759.2,58846,45859
4,68,99.3,0,21646,3759.2,58880,45894
4,68,99.3,0,21156,3759.2,58920,45927
4,68,99.3,0,20677,3759.2,58952,45961
4,68,99.3,0,20209,3759.2,58985,45992
4,68,99.3,0,19751,3759.2,59009,46022
4,68,99.3,0,19293,3759.2,59033,46049
4,68,99.3,0,18834,3759.2,59040,46068
4,68,99.3,0,18374,3759.2,59028,46074
4,68,99.3,0,17914,3759.2,59000,46065
4,68,99.3,0,17465,3759.2,58969,46058
4,68,99.3,0,17039,3759.2,58950,46054
4,68,99.3,0,16635,3759.2,58941,46046
4,68,99.3,0,16300,3759.2,58958,46050
4,68,99.3,0,16010,3759.2,58979,46039
4,68,99.3,0,15777,3759.2,58979,45997
4,68,99.3,0,15625,3759.2,58918,45863
4,68,99.3,0,15577,3759.2,58772,45603
4,68,99.3,0,15654,3759.2,58551,45226
4,68,99.3,0,15928,3759.2,58340,44880
4,68,99.3,0,16467,3759.2,58205,44650
4,68,99.3,0,17387,3759.2,58140,44525
4,68,99.3,0,18770,3759.2,58112,44474
4,68,99.3,0,20628,3759.2,58122,44482
4,68,99.3,0,23000,3759.2,58153,44523
4,68,99.3,0,25817,3759.2,58185,44585
4,68,99.3,0,29001,3759.2,58181,44627
4,68,99.3,0,32441,3759.2,58105,44610
4,68,99.3,0,35975,3759.2,57984,44537
4,68,99.3,0,39451,3759.2,57856,44430
4,68,99.3,0,42748,3759.2,57746,44318
4,68,99.3,0,45758,3759.2,57639,44192
4,68,99.3,0,48456,3759.2,57520,44067
4,68,99.3,0,50781,3759.2,57419,43948
4,68,99.3,0,52766,3759.2,57388,43870
4,68,99.3,8,54469,3759.2,57408,43822
4,68,99.3,0,55925,3759.2,57425,43787
4,68,99.3,0,57156,3759.2,57444,43768
4,68,99.3,0,58245,3759.2,57450,43760
4,68,99.3,0,59227,3759.2,57476,43772
4,68,99.3,0,60102,3759.2,57548,43827
4,68,99.3,0,60905,3759.2,57663,43911
4,68,99.3,0,61613,3759.2,57773,44000
4,68,99.3,0,62214,3759.2,57856,44082
4,68,99.3,0,62258,3759.2,57921,44162
4,68,99.3,0,62258,3759.2,57973,44236
4,68,99.3,0,62235,3759.2,58020,44312
4,68,99.3,0,62017,3759.2,58039,44373
4,68,99.3,0,61523,3759.2,58048,44427
4,68,99.3,0,60755,3759.2,58059,44478
4,68,99.3,0,59713,3759.2,58072,44518
4,68,99.3,0,58431,3759.2,58054,44535
4,68,99.3,0,56909,3759.2,57975,44513
4,68,99.3,0,55227,3759.2,57877,44465
4,68,99.3,0,53443,3759.2,57791,44411
4,68,99.3,0,51613,3759.2,57728,44357
4,68,99.3,0,49817,3759.2,57669,44305
4,68,99.3,0,48147,3759.2,57614,44257
4,68,99.3,0,46637,3759.2,57576,44227
4,68,99.3,0,45391,3759.2,57600,44243
4,68,99.3,0,44421,3759.2,57638,44281
4,68,99.3,0,43740,3759.2,57700,44344
4,68,99.3,0,43336,3759.2,57805,44441
4,68,99.3,0,43186,3759.2,57960,44573
4,68,99.3,0,43211,3759.2,58133,44723
4,68,99.3,0,43330,3759.2,58281,44875
4,68,99.3,0,43460,3759.2,58372,45005
4,68,99.3,0,43485,3759.2,58411,45110
4,68,99.3,0,43323,3759.2,58412,45183
4,68,99.3,0,42892,3759.2,58385,45219
4,68,99.3,0,42142,3759.2,58346,45208
4,68,99.3,0,41075,3759.2,58254,45131
4,68,99.3,0,39698,3759.2,58128,45001
4,68,99.3,0,38095,3759.2,57972,44856
4,68,99.3,0,36345,3759.2,57836,44725
4,68,99.3,0,34577,3759.2,57775,44634
4,68,99.3,0,32897,3759.2,57754,44553
4,68,99.3,0,31449,3759.2,57743,44485
4,68,99.3,0,30328,3759.2,57756,44452
4,68,99.3,0,29609,3759.2,57791,44465
4,68,99.3,0,29341,3759.2,57875,44541
4,68,99.3,0,29502,3759.2,57997,44656
4,68,99.3,0,30071,3759.2,58142,44787
4,68,99.3,0,30967,3759.2,58278,44922
4,67,99.2,0,32045,3759.2,58395,45043
4,67,99.2,0,33189,3759.2,58503,45154
4,67,99.2,0,34264,3759.2,58621,45278
4,67,99.2,0,35125,3759.2,58720,45388
4,67,99.2,0,35675,3759.2,58770,45476
4,67,99.2,0,35814,3759.2,58784,45543
4,67,99.2,0,35503,3759.2,58780,45576
4,67,99.2,0,34716,3759.2,58752,45576
4,67,99.2,0,33499,3759.2,58660,45519
4,67,99.2,0,31886,3759.2,58531,45427
4,67,99.2,0,29974,3759.2,58392,45326
4,67,99.2,0,27883,3759.2,58272,45237
4,67,99.2,0,25785,3759.2,58192,45168
4,67,99.2,0,23769,3759.2,58129,45112
4,67,99.2,0,21995,3759.2,58086,45079
4,67,99.2,0,20576,3759.2,58064,45075
4,67,99.2,0,19549,3759.2,58059,45094
4,67,99.2,0,18979,3759.2,58081,45138
4,67,99.2,0,18865,3759.2,58150,45215
4,67,99.2,0,19148,3759.2,58278,45324
4,67,99.2,0,19766,3759.2,58438,45440
4,67,99.2,0,20595,3759.2,58575,45542
4,67,99.2,0,21538,3759.2,58661,45605
4,67,99.2,0,22470,3759.2,58680,45614
4,67,99.2,0,23279,3759.2,58626,45538
4,67,99.2,0,23915,3759.2,58446,45302
4,67,99.2,0,24328,3759.2,58132,44892
4,67,99.2,0,24541,3759.2,57732,44361
4,67,99.2,0,24680,3759.2,57394,43930
4,67,99.2,0,24944,3759.2,57162,43646
4,67,99.2,0,25498,3759.2,57022,43465
4,67,99.2,0,26533,3759.2,56929,43352
4,67,99.2,0,28200,3759.2,56877,43294
4,67,99.2,0,30581,3759.2,56859,43283
4,67,99.2,0,33679,3759.2,56870,43306
4,67,99.2,0,37422,3759.2,56908,43360
4,67,99.2,0,41710,3759.2,56994,43442
4,67,99.2,0,46337,3759.2,57114,43539
4,67,99.2,0,51070,3759.2,57249,43645
4,67,99.2,0,55677,3759.2,57367,43740
4,67,99.2,0,59949,3759.2,57460,43823
4,67,99.2,0,62258,3759.2,57528,43886
4,67,99.2,0,62258,3759.2,57573,43932
4,67,99.2,0,62258,3759.2,57603,43957
4,67,99.2,8,62258,3759.2,57637,43984
4,67,99.2,0,62258,3759.2,57682,44014
4,67,99.2,0,61970,3759.2,57732,44057
4,67,99.2,0,61108,3759.2,57782,44095
4,67,99.2,0,59772,3759.2,57839,44144
4,67,99.2,0,58051,3759.2,57889,44183
4,67,99.2,0,56064,3759.2,57940,44219
4,67,99.2,0,53929,3759.2,57974,44245
4,67,99.2,0,51715,3759.2,57992,44261
4,67,99.2,0,49531,3759.2,58003,44268
4,67,99.2,0,47434,3759.2,57995,44264
4,67,99.2,0,45505,3759.2,57975,44257
4,67,99.2,0,43763,3759.2,57960,44262
4,67,99.2,0,42247,3759.2,58005,44319
4,67,99.2,0,40989,3759.2,58109,44409
4,67,99.2,0,39958,3759.2,58283,44551
4,67,99.2,0,39146,3759.2,58254,44561
4,67,99.2,0,38492,3759.2,58240,44603
4,67,99.2,0,37957,3759.2,58244,44645
4,67,99.2,0,37501,3759.2,58255,44680
4,67,99.2,0,37084,3759.2,58236,44688
4,67,99.2,0,36666,3759.2,58190,44669
4,67,99.2,0,36217,3759.2,58133,44639
4,67,99.2,0,35725,3759.2,58072,44624
4,67,99.2,0,35201,3759.2,58085,44664
4,67,99.2,0,34644,3759.2,58071,44697
4,67,99.2,0,34075,3759.2,58107,44759
4,67,99.2,0,33494,3759.2,58156,44828
4,67,99.2,0,32911,3759.2,58207,44899
4,67,99.2,0,32335,3759.2,58258,44962
4,67,99.2,0,31758,3759.2,58307,45022
4,67,99.2,0,31157,3759.2,58369,45076
4,67,99.2,0,30534,3759.2,58424,45126
4,67,99.2,0,29857,3759.2,58469,45172
4,67,99.2,0,29156,3759.2,58499,45213
4,67,99.2,0,28391,3759.2,58512,45241
4,67,99.2,0,27572,3759.2,58510,45266
4,67,99.2,0,26719,3759.2,58508,45287
4,67,99.2,0,25833,3759.2,58505,45309
4,67,99.2,0,24934,3759.2,58531,45349
4,67,99.2,0,24032,3759.2,58587,45403
4,67,99.2,0,23140,3759.2,58651,45458
4,67,99.2,0,22266,3759.2,58719,45522
4,67,99.2,0,21423,3759.2,58775,45581
4,67,99.2,0,20620,3759.2,58834,45639
4,67,99.2,0,19847,3759.2,58883,45696
4,67,99.2,0,19084,3759.2,58928,45752
4,67,99.2,0,18352,3759.2,58980,45802
4,67,99.2,0,17630,3759.2,59031,45852
4,67,99.2,0,16896,3759.2,59078,45896
4,67,99.2,0,16152,3759.2,59106,45935
4,67,99.2,0,15407,3759.2,59125,45968
4,67,99.2,0,14651,3759.2,59134,45993
4,67,99.2,0,13884,3759.2,59127,46004
4,67,99.2,0,13128,3759.2,59113,46012
4,67,99.2,0,12371,3759.2,59116,46037
4,67,99.0,0,11658,3759.2,59141,46067
4,67,99.0,0,10976,3759.2,59184,46115
4,67,99.0,0,10359,3759.2,59253,46173
4,67,99.0,0,9795,3759.2,59321,46230
4,67,99.0,0,9285,3759.2,59379,46278
4,67,99.0,0,8839,3759.2,59421,46323
4,67,99.0,0,8425,3759.2,59458,46361
4,67,99.0,0,8055,3759.2,59492,46391
4,67,99.0,0,7695,3759.2,59522,46416
4,67,99.0,0,7336,3759.2,59553,46448
4,67,99.0,0,6967,3759.2,59573,46474
4,67,99.0,0,6619,3759.2,59590,46500
4,67,99.0,0,6272,3759.2,59587,46516
4,67,99.0,0,5925,3759.2,59581,46525
4,67,99.0,0,5579,3759.2,59581,46537
4,67,99.0,0,5255,3759.2,59604,46553
4,67,99.0,0,4942,3759.2,59638,46568
4,67,99.0,0,4682,3759.2,59662,46565
4,67,99.0,0,4445,3759.2,59671,46539
4,67,99.0,0,4272,3759.2,59656,46457
4,67,99.0,0,4153,3759.2,59565,46270
4,67,99.0,0,4130,3759.2,59397,45973
4,67,99.0,0,4246,3759.2,59178,45630
4,67,99.0,0,4575,3759.2,59021,45379
4,67,99.0,0,5202,3759.2,58926,45222
4,67,99.0,0,6181,3759.2,58882,45148
4,67,99.0,0,7597,3759.2,58871,45131
4,67,99.0,0,9460,3759.2,58880,45143
4,67,99.0,0,11750,3759.2,58909,45175
4,67,99.0,0,14424,3759.2,58942,45218
4,67,99.0,0,17389,3759.2,58976,45264
4,67,99.0,0,20496,3759.2,59011,45313
4,67,99.0,0,23629,3759.2,59040,45351
4,67,99.0,0,26641,3759.2,59067,45381
4,67,99.0,0,29434,3759.2,59072,45393
4,67,99.0,0,31903,3759.2,59047,45385
4,67,99.0,0,33947,3759.2,59003,45361
4,67,99.0,8,35554,3759.2,58953,45328
4,67,99.0,0,36700,3759.2,58904,45301
4,67,99.0,0,37403,3759.2,58878,45298
4,67,99.0,0,37716,3759.2,58875,45311
4,67,99.0,0,37691,3759.2,58890,45330
4,67,99.0,0,37404,3759.2,58908,45362
4,67,99.0,0,36919,3759.2,58923,45387
4,67,99.0,0,36279,3759.2,58942,45414
4,67,99.0,0,35560,3759.2,58977,45444
4,67,99.0,0,34805,3759.2,59014,45474
4,67,99.0,0,34058,3759.2,59053,45502
4,67,99.0,0,33331,3759.2,59093,45531
4,67,99.0,0,32645,3759.2,59118,45539
4,67,99.0,0,32012,3759.2,59106,45537
4,67,99.0,0,31444,3759.2,59092,45530
4,67,99.0,0,30929,3759.2,59090,45538
4,67,99.0,0,30468,3759.2,59119,45572
4,67,99.0,0,30083,3759.2,59170,45629
4,67,99.0,0,29742,3759.2,59248,45704
4,67,99.0,0,29434,3759.2,59316,45783
4,67,99.0,0,29136,3759.2,59377,45857
4,67,99.0,0,28825,3759.2,59416,45920
4,67,99.0,0,28480,3759.2,59434,45972
4,67,99.0,0,28066,3759.2,59446,46006
4,67,99.0,0,27561,3759.2,59449,46038
4,67,99.0,0,26963,3759.2,59451,46064
4,67,99.0,0,26261,3759.2,59459,46091
4,67,99.0,0,25455,3759.2,59465,46113
4,67,99.0,0,24568,3759.2,59460,46130
4,67,99.0,0,23633,3759.2,59441,46131
4,67,99.0,0,22673,3759.2,59401,46125
4,67,99.0,0,21711,3759.2,59348,46104
4,67,99.0,0,20782,3759.2,59287,46075
4,67,99.0,0,19932,3759.2,59228,46052
4,67,99.0,0,19173,3759.2,59189,46042
4,67,99.0,0,18550,3759.2,59189,46053
4,67,99.0,0,18087,3759.2,59228,46091
4,67,99.0,0,17774,3759.2,59291,46140
4,67,99.0,0,17610,3759.2,59369,46195
4,67,99.0,0,17572,3759.2,59456,46258
4,67,99.0,0,17638,3759.2,59541,46323
4,67,99.0,0,17762,3759.2,59613,46382
4,67,99.0,0,17898,3759.2,59670,46428
4,67,99.0,0,18010,3759.2,59713,46472
4,67,99.0,0,18054,3759.2,59745,46501
4,67,99.0,0,18004,3759.2,59764,46530
4,67,99.0,0,17839,3759.2,59778,46555
4,67,99.0,0,17545,3759.2,59793,46586
4,67,99.0,0,17124,3759.2,59808,46608
4,67,99.0,0,16586,3759.2,59819,46630
4,67,99.0,0,15966,3759.2,59831,46652
4,67,99.0,0,15276,3759.2,59836,46675
4,67,99.0,0,14551,3759.2,59844,46695
4,67,99.0,0,13802,3759.2,59851,46722
4,67,99.0,0,13065,3759.2,59862,46743
4,67,99.0,0,12351,3759.2,59866,46766
4,67,99.0,0,11696,3759.2,59877,46792
4,67,99.0,0,11122,3759.2,59884,46815
4,67,99.0,0,10608,3759.2,59891,46838
4,67,99.0,0,10176,3759.2,59894,46859
4,67,99.0,0,9814,3759.2,59886,46871
4,67,99.0,0,9511,3759.2,59869,46875
4,67,99.0,0,9278,3759.2,59847,46876
4,67,98.8,0,9116,3759.2,59817,46875
4,67,98.8,0,9002,3759.2,59793,46873
4,67,98.8,0,8934,3759.2,59774,46860
4,67,98.8,0,8925,3759.2,59755,46846
4,67,98.8,0,8974,3759.2,59739,46812
4,67,98.8,0,9071,3759.2,59708,46746
4,67,98.8,0,9226,3759.2,59645,46613
4,67,98.8,0,9452,3759.2,59506,46367
4,67,98.8,0,9795,3759.2,59298,46029
4,67,98.8,0,10314,3759.2,59098,45729
4,67,98.8,0,11092,3759.2,58953,45523
4,67,98.8,0,12212,3759.2,58874,45407
4,67,98.8,0,13744,3759.2,58839,45356
4,67,98.8,0,15725,3759.2,58833,45348
4,67,98.8,0,18155,3759.2,58844,45371
4,67,98.8,0,21003,3759.2,58871,45407
4,67,98.8,0,24175,3759.2,58908,45459
4,67,98.8,0,27568,3759.2,58947,45513
4,67,98.8,0,31031,3759.2,58989,45565
4,67,98.8,0,34411,3759.2,59015,45602
4,67,98.8,0,37589,3759.2,59028,45627
4,67,98.8,0,40405,3759.2,59038,45641
4,67,98.8,0,42785,3759.2,59038,45647
4,67,98.8,0,44655,3759.2,59041,45646
4,67,98.8,8,45988,3759.2,59044,45651
4,67,98.8,0,46782,3759.2,59052,45664
4,67,98.8,0,47085,3759.2,59068,45688
4,67,98.8,0,46931,3759.2,59084,45713
4,67,98.8,0,46404,3759.2,59101,45735
4,67,98.8,0,45575,3759.2,59122,45759
4,67,98.8,0,44515,3759.2,59130,45772
4,67,98.8,0,43297,3759.2,59139,45780
4,67,98.8,0,42003,3759.2,59137,45778
4,67,98.8,0,40707,3759.2,59132,45769
4,67,98.8,0,39457,3759.2,59130,45764
4,67,98.8,0,38288,3759.2,59126,45754
4,67,98.8,0,37249,3759.2,59116,45741
4,67,98.8,0,36366,3759.2,59122,45743
4,67,98.8,0,35664,3759.2,59129,45752
4,67,98.8,0,35118,3759.2,59149,45774
4,67,98.8,0,34754,3759.2,59177,45799
4,67,98.8,0,34537,3759.2,59205,45833
4,67,98.8,0,34429,3759.2,59231,45869
4,67,98.8,0,34432,3759.2,59260,45912
4,67,98.8,0,34473,3759.2,59296,45957
4,67,98.8,0,34525,3759.2,59315,45995
4,67,98.8,0,34553,3759.2,59337,46032
4,67,98.8,0,34519,3759.2,59358,46064
4,67,98.8,0,34386,3759.2,59363,46092
4,67,98.8,0,34139,3759.2,59372,46119
4,67,98.8,0,33767,3759.2,59385,46148
4,67,98.8,0,33268,3759.2,59392,46173
4,67,98.8,0,32679,3759.2,59398,46193
4,67,98.8,0,31975,3759.2,59400,46216
4,67,98.8,0,31180,3759.2,59408,46237
4,67,98.8,0,30331,3759.2,59412,46255
4,67,98.8,0,29442,3759.2,59419,46273
4,67,98.8,0,28550,3759.2,59423,46293
4,67,98.8,0,27655,3759.2,59434,46313
4,67,98.8,0,26796,3759.2,59441,46329
4,67,98.8,0,26010,3759.2,59445,46343
4,67,98.8,0,25274,3759.2,59454,46358
4,67,98.8,0,24599,3759.2,59462,46374
4,67,98.8,0,24000,3759.2,59471,46391
4,67,98.8,0,23476,3759.2,59486,46415
4,67,98.8,0,23040,3759.2,59502,46437
4,67,98.8,0,22656,3759.2,59516,46457
4,67,98.8,0,22321,3759.2,59531,46474
4,67,98.8,0,22038,3759.2,59545,46493
4,67,98.8,0,21793,3759.2,59565,46515
4,67,98.8,0,21573,3759.2,59581,46536
4,67,98.8,0,21365,3759.2,59599,46562
4,67,98.8,0,21132,3759.2,59616,46582
4,67,98.8,0,20898,3759.2,59638,46607
4,67,98.8,0,20664,3759.2,59653,46630
4,67,98.8,0,20390,3759.2,59663,46650
4,67,98.8,0,20116,3759.2,59673,46673
4,67,98.8,0,19803,3759.2,59687,46693
4,67,98.8,0,19476,3759.2,59695,46714
4,67,98.8,0,19123,3759.2,59708,46733
4,67,98.8,0,18770,3759.2,59721,46758
4,67,98.8,0,18390,3759.2,59733,46783
4,67,98.8,0,17996,3759.2,59737,46802
4,67,98.8,0,17603,3759.2,59743,46816
4,67,98.8,0,17208,3759.2,59747,46826
4,67,98.8,0,16827,3759.2,59746,46830
4,67,98.8,0,16446,3759.2,59734,46811
4,67,98.8,0,16103,3759.2,59705,46755
4,67,98.8,0,15787,3759.2,59634,46634
4,67,98.8,0,15536,3759.2,59492,46396
4,67,98.8,0,15403,3759.2,59280,46040
4,67,98.8,0,15455,3759.2,59048,45685
4,67,98.8,0,15796,3759.2,58875,45434
4,67,98.8,0,16547,3759.2,58769,45277
4,67,98.8,0,17813,3759.2,58714,45193
4,67,98.8,0,19675,3759.2,58697,45168
4,67,98.8,0,22148,3759.2,58689,45160
4,67,98.8,0,25196,3759.2,58702,45179
4,67,98.8,0,28756,3759.2,58720,45209
4,67,98.8,0,32661,3759.2,58738,45237
4,67,98.9,0,36793,3759.2,58755,45264
4,67,98.9,0,40964,3759.2,58769,45287
4,67,98.9,0,44984,3759.2,58776,45300
4,67,98.9,0,48703,3759.2,58780,45303
4,67,98.9,0,51982,3759.2,58776,45294
4,67,98.9,0,54725,3759.2,58767,45279
4,67,98.9,0,56878,3759.2,58748,45251
4,67,98.9,8,58413,3759.2,58730,45235
4,67,98.9,0,59357,3759.2,58724,45228
4,67,98.9,0,59778,3759.2,58722,45233
4,67,98.9,0,59715,3759.2,58726,45241
4,67,98.9,0,59264,3759.2,58731,45256
4,67,98.9,0,58532,3759.2,58738,45271
4,67,98.9,0,57600,3759.2,58736,45276
4,67,98.9,0,56535,3759.2,58736,45278
4,67,98.9,0,55403,3759.2,58731,45277
4,67,98.9,0,54273,3759.2,58725,45273
4,67,98.9,0,53209,3759.2,58717,45266
4,67,98.9,0,52227,3759.2,58708,45252
4,67,98.9,0,51352,3759.2,58696,45240
4,67,98.9,0,50611,3759.2,58693,45234
4,67,98.9,0,50019,3759.2,58690,45233
4,67,98.9,0,49574,3759.2,58689,45242
4,67,98.9,0,49238,3759.2,58692,45250
4,67,98.9,0,49009,3759.2,58701,45267
4,67,98.9,0,48888,3759.2,58711,45293
4,67,98.9,0,48821,3759.2,58727,45319
4,67,98.9,0,48795,3759.2,58744,45353
4,67,98.9,0,48769,3759.2,58762,45381
4,67,98.9,0,48702,3759.2,58781,45418
4,67,98.9,0,48580,3759.2,58800,45450
4,67,98.9,0,48377,3759.2,58820,45486
4,67,98.9,0,48079,3759.2,58833,45518
4,67,98.9,0,47657,3759.2,58849,45548
4,67,98.9,0,47099,3759.2,58869,45577
4,67,98.9,0,46444,3759.2,58883,45605
4,67,98.9,0,45666,3759.2,58901,45635
4,67,98.9,0,44791,3759.2,58915,45661
4,67,98.9,0,43832,3759.2,58930,45689
4,67,98.9,0,42803,3759.2,58947,45718
4,67,98.9,0,41716,3759.2,58965,45743
4,67,98.9,0,40614,3759.2,58984,45769
4,67,98.9,0,39495,3759.2,58995,45788
4,67,98.9,0,38401,3759.2,59013,45812
4,67,98.9,0,37332,3759.2,59027,45836
4,67,98.9,0,36286,3759.2,59038,45852
4,67,98.9,0,35307,3759.2,59045,45869
4,67,98.9,0,34380,3759.2,59055,45887
4,67,98.9,0,33505,3759.2,59066,45907
4,67,98.9,0,32697,3759.2,59077,45926
4,67,98.9,0,31956,3759.2,59087,45944
4,67,98.9,0,31281,3759.2,59094,45960
4,67,98.9,0,30661,3759.2,59105,45982
4,67,98.9,0,30080,3759.2,59115,45997
4,67,98.9,0,29540,3759.2,59123,46014
4,67,98.9,0,29055,3759.2,59123,46029
4,67,98.9,0,28596,3759.2,59126,46045
4,67,98.9,0,28178,3759.2,59137,46066
4,67,98.9,0,27787,3759.2,59144,46079
4,67,98.9,0,27381,3759.2,59147,46097
4,67,98.9,0,27002,3759.2,59159,46120
4,67,98.9,0,26623,3759.2,59167,46137
4,67,98.9,0,26256,3759.2,59177,46156
4,67,98.9,0,25874,3759.2,59186,46173
4,67,98.9,0,25477,3759.2,59193,46189
4,67,98.9,0,25079,3759.2,59210,46211
4,67,98.9,0,24680,3759.2,59218,46228
4,67,98.9,0,24281,3759.2,59223,46231
4,67,98.9,0,23880,3759.2,59218,46217
4,67,98.9,0,23478,3759.2,59191,46158
4,67,98.9,0,23105,3759.2,59106,46003
4,67,98.9,0,22774,3759.2,58945,45729
4,67,98.9,0,22558,3759.2,58720,45364
4,67,98.9,0,22545,3759.2,58506,45046
4,67,98.9,0,22836,3759.2,58357,44816
4,67,98.9,0,23608,3759.2,58269,44682
4,67,98.9,0,24949,3759.2,58223,44605
4,67,98.9,0,26934,3759.2,58205,44582
4,67,98.9,0,29597,3759.2,58207,44582
4,67,98.9,0,32869,3759.2,58216,44595
4,67,98.9,0,36682,3759.2,58234,44617
4,67,98.9,0,40887,3759.2,58248,44637
4,67,98.9,0,45293,3759.2,58260,44650
4,67,98.9,0,49704,3759.2,58263,44654
4,67,98.9,0,53941,3759.2,58264,44648
4,67,98.9,0,57837,3759.2,58253,44632
4,67,98.9,0,61258,3759.2,58238,44603
4,67,98.9,0,62258,3759.2,58221,44576
4,67,98.9,0,62258,3759.2,58211,44553
4,67,98.9,8,62258,3759.2,58206,44534
4,67,98.9,0,62258,3759.2,58204,44530
4,67,98.9,0,62258,3759.2,58211,44544
4,67,98.9,0,62187,3759.2,58230,44568
4,67,98.9,0,61905,3759.2,58255,44595
4,67,98.9,0,61388,3759.2,58272,44616
4,67,98.9,0,60683,3759.2,58286,44640
4,67,98.9,0,59839,3759.2,58296,44643
4,67,98.9,0,58937,3759.2,58298,44650
4,67,98.9,0,57977,3759.2,58294,44642
4,67,98.9,0,57030,3759.2,58288,44636
4,67,99.0,0,56096,3759.2,58280,44622
4,67,99.0,0,55233,3759.2,58273,44610
4,67,99.0,0,54441,3759.2,58262,44599
4,67,99.0,0,53732,3759.2,58259,44604
4,67,99.0,0,53118,3759.2,58265,44609
4,67,99.0,0,52611,3759.2,58277,44624
4,67,99.0,0,52186,3759.2,58291,44640
4,67,99.0,0,51844,3759.2,58304,44659
4,67,99.0,0,51573,3759.2,58314,44680
4,67,99.0,0,51326,3759.2,58332,44709
4,67,99.0,0,51126,3759.2,58351,44730
4,67,99.0,0,50914,3759.2,58363,44756
4,67,99.0,0,50678,3759.2,58377,44783
4,67,99.0,0,50407,3759.2,58395,44810
4,67,99.0,0,50087,3759.2,58419,44842
4,67,99.0,0,49697,3759.2,58443,44877
4,67,99.0,0,49234,3759.2,58466,44908
4,67,99.0,0,48688,3759.2,58487,44937
4,67,99.0,0,48057,3759.2,58506,44963
4,67,99.0,0,47354,3759.2,58529,44993
4,67,99.0,0,46591,3759.2,58539,45007
4,67,99.0,0,45766,3759.2,58561,45038
4,67,99.0,0,44893,3759.2,58576,45055
4,67,99.0,0,43982,3759.2,58585,45075
4,67,99.0,0,43046,3759.2,58598,45098
4,67,99.0,0,42107,3759.2,58616,45122
4,67,99.0,0,41191,3759.2,58632,45142
4,67,99.0,0,40297,3759.2,58642,45161
4,67,99.0,0,39437,3759.2,58650,45178
4,67,99.0,0,38623,3759.2,58662,45199
4,67,99.0,0,37843,3759.2,58675,45216
4,67,99.0,0,37122,3759.2,58683,45234
4,67,99.0,0,36447,3759.2,58692,45253
4,67,99.0,0,35819,3759.2,58704,45272
4,67,99.0,0,35250,3759.2,58716,45293
4,67,99.0,0,34703,3759.2,58731,45313
4,67,99.0,0,34203,3759.2,58749,45342
4,67,99.0,0,33726,3759.2,58771,45367
4,67,99.0,0,33260,3759.2,58792,45398
4,67,99.0,0,32804,3759.2,58807,45428
4,67,99.0,0,32346,3759.2,58829,45455
4,67,99.0,0,31875,3759.2,58845,45486
4,67,99.0,0,31413,3759.2,58864,45513
4,67,99.0,0,30926,3759.2,58877,45535
4,67,99.0,0,30411,3759.2,58893,45565
4,67,99.0,0,29883,3759.2,58903,45588
4,67,99.0,0,29340,3759.2,58919,45612
4,67,99.0,0,28757,3759.2,58931,45634
4,67,99.0,0,28161,3759.2,58947,45653
4,67,99.0,0,27550,3759.2,58950,45656
4,67,99.0,0,26937,3759.2,58930,45609
4,67,99.0,0,26348,3759.2,58852,45473
4,67,99.0,0,25782,3759.2,58694,45216
4,67,99.0,0,25316,3759.2,58481,44887
4,67,99.0,0,25001,3759.2,58285,44588
4,67,99.0,0,24965,3759.2,58138,44366
4,67,99.0,0,25322,3759.2,58043,44225
4,67,99.0,0,26150,3759.2,57991,44142
4,67,99.0,0,27541,3759.2,57964,44108
4,67,99.0,0,29499,3759.2,57961,44105
4,67,99.0,0,32025,3759.2,57970,44120
4,67,99.0,0,35010,3759.2,57981,44145
4,67,99.0,0,38364,3759.2,57998,44169
4,67,99.0,0,41933,3759.2,58009,44188
4,67,99.0,0,45573,3759.2,58018,44200
4,67,99.0,0,49089,3759.2,58018,44198
4,67,99.0,0,52350,3759.2,58010,44193
4,67,99.0,0,55236,3759.2,57995,44173
4,67,99.0,0,57670,3759.2,57976,44147
4,67,99.0,0,59585,3759.2,57954,44124
4,67,99.0,8,60982,3759.2,57942,44110
4,67,99.0,0,61873,3759.2,57944,44113
4,67,99.0,0,62258,3759.2,57957,44129
4,67,99.0,0,62168,3759.2,57967,44150
4,67,99.0,0,61835,3759.2,57986,44177
4,67,99.0,0,61245,3759.2,57998,44199
4,67,99.0,0,60452,3759.2,58014,44215
4,67,99.0,0,59518,3759.2,58014,44222
4,67,99.0,0,58484,3759.2,58016,44221
4,67,99.0,0,57437,3759.2,58012,44215
4,67,99.0,0,56366,3759.2,58004,44202
4,67,99.0,0,55348,3759.2,57993,44190
4,67,99.0,0,54394,3759.2,57987,44183
4,67,99.0,0,53530,3759.2,57982,44177
4,67,99.0,0,52783,3759.2,57980,44179
4,67,99.0,0,52151,3759.2,57987,44192
4,67,99.0,0,51636,3759.2,57994,44207
4,67,99.0,0,51223,3759.2,58002,44225
4,67,99.0,0,50889,3759.2,58018,44253
4,67,99.0,0,50631,3759.2,58035,44277
4,67,99.0,0,50425,3759.2,58050,44303
4,67,99.0,0,50232,3759.2,58066,44333
4,67,99.0,0,50039,3759.2,58085,44363
4,67,99.0,0,49807,3759.2,58099,44392
4,67,99.0,0,49522,3759.2,58119,44422
4,67,99.0,0,49173,3759.2,58129,44451
4,67,99.0,0,48719,3759.2,58145,44476
4,67,99.0,0,48174,3759.2,58166,44512
4,67,99.0,0,47537,3759.2,58183,44543
4,67,99.0,0,46809,3759.2,58200,44570
4,67,99.1,0,46001,3759.2,58218,44598
4,67,99.1,0,45114,3759.2,58242,44630
4,67,99.1,0,44185,3759.2,58255,44652
4,67,99.1,0,43217,3759.2,58278,44683
4,67,99.1,0,42220,3759.2,58303,44707
4,67,99.1,0,41194,3759.2,58323,44733
4,67,99.1,0,40180,3759.2,58344,44761
4,67,99.1,0,39162,3759.2,58363,44779
4,67,99.1,0,38182,3759.2,58384,44807
4,67,99.1,0,37212,3759.2,58406,44831
4,67,99.1,0,36292,3759.2,58429,44854
4,67,99.1,0,35422,3759.2,58442,44878
4,67,99.1,0,34589,3759.2,58454,44899
4,67,99.1,0,33793,3759.2,58466,44922
4,67,99.1,0,33047,3759.2,58477,44945
4,67,99.1,0,32326,3759.2,58496,44978
4,67,99.1,0,31654,3759.2,58514,45005
4,67,99.1,0,31021,3759.2,58532,45036
4,67,99.1,0,30399,3759.2,58549,45062
4,67,99.1,0,29802,3759.2,58563,45084
4,67,99.1,0,29216,3759.2,58575,45111
4,67,99.1,0,28642,3759.2,58574,45131
4,67,99.1,0,28052,3759.2,58575,45155
4,67,99.1,0,27475,3759.2,58578,45179
4,67,99.1,0,26882,3759.2,58585,45207
4,67,99.1,0,26287,3759.2,58595,45233
4,67,99.1,0,25705,3759.2,58607,45257
4,67,99.1,0,25107,3759.2,58616,45282
4,67,99.1,0,24522,3759.2,58631,45314
4,67,99.1,0,23949,3759.2,58653,45341
4,67,99.1,0,23347,3759.2,58665,45364
4,67,99.1,0,22772,3759.2,58676,45386
4,67,99.1,0,22182,3759.2,58682,45407
4,67,99.1,0,21618,3759.2,58684,45419
4,67,99.1,0,21053,3759.2,58671,45412
4,67,99.1,0,20501,3759.2,58633,45366
4,67,99.1,0,19976,3759.2,58553,45247
4,67,99.1,0,19506,3759.2,58405,45011
4,67,99.1,0,19146,3759.2,58183,44663
4,67,99.1,0,18951,3759.2,57954,44317
4,67,99.1,0,19075,3759.2,57772,44049
4,67,99.1,0,19616,3759.2,57669,43883
4,67,99.1,0,20685,3759.2,57614,43798
4,67,99.1,0,22396,3759.2,57608,43765
4,67,99.1,0,24765,3759.2,57629,43772
4,67,99.1,0,27768,3759.2,57651,43797
4,67,99.1,0,31312,3759.2,57688,43833
4,67,99.1,0,35304,3759.2,57727,43871
4,67,99.1,0,39533,3759.2,57764,43901
4,67,99.1,0,43800,3759.2,57789,43921
4,67,99.1,0,47948,3759.2,57805,43935
4,67,99.1,0,51776,3759.2,57819,43937
4,67,99.1,0,55153,3759.2,57828,43930
4,67,99.1,0,57965,3759.2,57839,43915
4,67,99.1,0,60154,3759.2,57853,43906
4,67,99.1,8,61692,3759.2,57876,43902
4,67,99.1,0,62258,3759.2,57898,43906
4,67,99.1,0,62258,3759.2,57927,43929
4,67,99.1,0,62024,3759.2,57958,43957
4,67,99.1,0,61476,3759.2,57993,44001
4,67,99.1,0,60585,3759.2,58025,44044
4,67,99.1,0,59449,3759.2,58046,44087
4,67,99.1,0,58149,3759.2,58055,44115
4,67,99.1,0,56741,3759.2,58048,44130
4,67,99.1,0,55266,3759.2,58041,44137
4,67,99.1,0,53791,3759.2,58022,44134
4,67,99.1,0,52344,3759.2,58000,44124
4,67,99.1,0,50980,3759.2,57976,44111
4,67,99.1,0,49711,3759.2,57960,44104
4,67,99.1,0,48567,3759.2,57944,44105
4,67,99.1,0,47559,3759.2,57936,44107
4,67,99.1,0,46702,3759.2,57936,44118
4,67,99.1,0,45997,3759.2,57940,44135
4,67,99.1,0,45429,3759.2,57952,44159
4,67,99.1,0,45013,3759.2,57966,44189
4,67,99.1,0,44694,3759.2,57982,44220
4,67,99.1,0,44444,3759.2,57996,44252
4,67,99.1,0,44249,3759.2,58019,44288
4,67,99.1,0,44054,3759.2,58025,44314
4,67,99.1,0,43830,3759.2,58040,44352
4,67,99.1,0,43564,3759.2,58051,44379
4,67,99.1,0,43214,3759.2,58066,44415
4,67,99.1,0,42779,3759.2,58084,44449
4,67,99.1,0,42245,3759.2,58107,44488
4,67,99.1,0,41611,3759.2,58124,44523
4,67,99.1,0,40863,3759.2,58145,44560
4,67,99.1,0,40029,3759.2,58174,44594
4,67,99.1,0,39094,3759.2,58198,44629
4,67,99.1,0,38100,3759.2,58226,44666
4,67,99.1,0,37032,3759.2,58251,44699
4,67,99.1,0,35932,3759.2,58269,44727
4,67,99.1,0,34800,3759.2,58283,44750
4,67,99.1,0,33650,3759.2,58294,44772
4,67,99.1,0,32496,3759.2,58299,44795
4,67,99.1,0,31365,3759.2,58312,44821
4,67,99.1,0,30274,3759.2,58314,44841
4,67,99.1,0,29236,3759.2,58324,44865
4,67,99.1,0,28252,3759.2,58339,44893
4,67,99.1,0,27323,3759.2,58361,44923
4,67,99.1,0,26463,3759.2,58386,44960
4,67,99.2,0,25659,3759.2,58424,44998
4,67,99.2,0,24926,3759.2,58466,45042
4,67,99.2,0,24248,3759.2,58514,45093
4,67,99.2,0,23583,3759.2,58559,45134
4,67,99.2,0,22946,3759.2,58597,45183
4,67,99.2,0,22308,3759.2,58635,45226
4,67,99.2,0,21654,3759.2,58667,45269
4,67,99.2,0,20970,3759.2,58692,45309
4,67,99.2,0,20227,3759.2,58714,45349
4,67,99.2,0,19453,3759.2,58734,45384
4,67,99.2,0,18620,3759.2,58746,45413
4,67,99.2,0,17742,3759.2,58769,45448
4,67,99.2,0,16819,3759.2,58789,45481
4,67,99.2,0,15867,3759.2,58809,45508
4,67,99.2,0,14914,3759.2,58826,45536
4,67,99.2,0,13960,3759.2,58836,45555
4,67,99.2,0,13007,3759.2,58844,45570
4,67,99.2,0,12083,3759.2,58849,45588
4,67,99.2,0,11203,3759.2,58843,45599
4,67,99.2,0,10412,3759.2,58833,45609
4,67,99.2,0,9666,3759.2,58816,45622
4,67,99.2,0,9008,3759.2,58798,45629
4,67,99.2,0,8454,3759.2,58785,45645
4,67,99.2,0,7975,3759.2,58776,45655
4,67,99.2,0,7598,3759.2,58762,45667
4,67,99.2,0,7326,3759.2,58749,45663
4,67,99.2,0,7128,3759.2,58722,45648
4,67,99.2,0,7018,3759.2,58685,45612
4,67,99.2,0,7011,3759.2,58628,45534
4,67,99.2,0,7093,3759.2,58516,45380
4,67,99.2,0,7264,3759.2,58343,45127
4,67,99.2,0,7611,3759.2,58105,44789
4,67,99.2,0,8195,3759.2,57882,44484
4,67,99.2,0,9117,3759.2,57721,44272
4,67,99.2,0,10483,3759.2,57618,44138
4,67,99.2,0,12380,3759.2,57561,44067
4,67,99.2,0,14883,3759.2,57524,44029
4,67,99.2,0,17981,3759.2,57510,44016
4,67,99.2,0,21646,3759.2,57502,44014
4,67,99.2,0,25764,3759.2,57510,44029
4,67,99.2,0,30190,3759.2,57522,44041
4,67,99.2,0,34797,3759.2,57535,44055
4,67,99.2,0,39404,3759.2,57548,44064
4,67,99.2,0,43813,3759.2,57568,44068
4,67,99.2,0,47870,3759.2,57584,44069
4,67,99.2,0,51435,3759.2,57602,44065
4,67,99.2,0,54446,3759.2,57613,44059
4,67,99.2,0,56857,3759.2,57626,44059
4,67,99.2,8,58605,3759.2,57655,44074
4,67,99.2,0,59736,3759.2,57686,44095
4,67,99.2,0,60295,3759.2,57726,44131
4,67,99.2,0,60329,3759.2,57770,44176
4,67,99.2,0,59913,3759.2,57818,44224
4,67,99.2,0,59107,3759.2,57877,44277
4,67,99.2,0,58002,3759.2,57932,44328
4,67,99.2,0,56673,3759.2,57987,44365
4,67,99.2,0,55179,3759.2,58032,44397
4,67,99.2,0,53567,3759.2,58068,44412
4,67,99.2,0,51879,3759.2,58100,44425
4,67,99.2,0,50161,3759.2,58118,44425
4,67,99.2,0,48487,3759.2,58140,44429
4,67,99.2,0,46857,3759.2,58158,44435
4,67,99.2,0,45330,3759.2,58184,44443
4,67,99.2,0,43938,3759.2,58205,44459
4,67,99.2,0,42679,3759.2,58229,44481
4,67,99.2,0,41585,3759.2,58255,44499
4,67,99.2,0,40625,3759.2,58285,44529
4,67,99.2,0,39800,3759.2,58321,44563
4,67,99.2,0,39094,3759.2,58352,44599
4,67,99.2,0,38493,3759.2,58390,44635
4,67,99.2,0,37967,3759.2,58429,44681
4,67,99.2,0,37486,3759.2,58468,44723
4,67,99.2,0,37003,3759.2,58507,44770
4,67,99.2,0,36503,3759.2,58548,44815
4,67,99.2,0,35955,3759.2,58588,44864
4,67,99.2,0,35313,3759.2,58629,44913
4,67,99.2,0,34575,3759.2,58667,44959
4,67,99.2,0,33743,3759.2,58716,45010
4,67,99.2,0,32798,3759.2,58768,45060
4,67,99.2,0,31741,3759.2,58821,45103
4,67,99.2,0,30571,3759.2,58878,45152
4,67,99.2,0,29303,3759.2,58938,45193
4,67,99.2,0,27953,3759.2,58983,45235
4,67,99.2,0,26552,3759.2,59032,45276
4,67,99.2,0,25085,3759.2,59077,45312
4,67,99.2,0,23599,3759.2,59117,45345
4,67,99.2,0,22125,3759.2,59157,45383
4,67,99.2,0,20649,3759.2,59185,45410
4,67,99.2,0,19217,3759.2,59217,45438
4,67,99.2,0,17863,3759.2,59247,45467
4,67,99.2,0,16571,3759.2,59277,45493
4,67,99.2,0,15357,3759.2,59298,45518
4,67,99.2,0,14221,3759.2,59317,45542
4,67,99.2,0,13196,3759.2,59332,45566
4,67,99.2,0,12266,3759.2,59351,45588
4,67,99.2,0,11430,3759.2,59362,45611
4,67,99.2,0,10675,3759.2,59377,45634
4,67,99.2,0,10030,3759.2,59388,45654
4,67,99.2,0,9465,3759.2,59404,45678
4,67,99.2,0,8964,3759.2,59420,45699
4,67,99.3,0,8527,3759.2,59434,45723
4,67,99.3,0,8138,3759.2,59449,45742
4,67,99.3,0,7797,3759.2,59455,45755
4,67,99.3,0,7488,3759.2,59465,45773
4,67,99.3,0,7195,3759.2,59479,45800
4,67,99.3,0,6918,3759.2,59494,45824
4,67,99.3,0,6674,3759.2,59512,45850
4,67,99.3,0,6430,3759.2,59545,45880
4,67,99.3,0,6202,3759.2,59588,45915
4,67,99.3,0,5958,3759.2,59632,45952
4,67,99.3,0,5699,3759.2,59667,45977
4,67,99.3,0,5425,3759.2,59697,45988
4,67,99.3,0,5134,3759.2,59696,45956
4,67,99.3,0,4829,3759.2,59649,45845
4,67,99.3,0,4540,3759.2,59527,45629
4,67,99.3,0,4299,3759.2,59348,45322
4,67,99.3,0,4202,3759.2,59162,45016
4,67,99.3,0,4359,3759.2,59021,44779
4,67,99.3,0,4929,3759.2,58927,44624
4,67,99.3,0,6040,3759.2,58873,44533
4,67,99.3,0,7785,3759.2,58852,44489
4,67,99.3,0,10181,3759.2,58851,44483
4,67,99.3,0,13261,3759.2,58861,44494
4,67,99.3,0,16932,3759.2,58877,44520
4,67,99.3,0,21069,3759.2,58892,44545
4,67,99.3,0,25518,3759.2,58914,44572
4,67,99.3,0,30090,3759.2,58935,44597
4,67,99.3,0,34566,3759.2,58954,44627
4,67,99.3,0,38784,3759.2,58969,44641
4,67,99.3,0,42594,3759.2,58986,44656
4,67,99.3,0,45880,3759.2,58996,44662
4,67,99.3,0,48524,3759.2,59014,44669
4,67,99.3,8,50492,3759.2,59041,44682
4,67,99.3,0,51766,3759.2,59067,44700
4,67,99.3,0,52378,3759.2,59094,44724
4,67,99.3,0,52407,3759.2,59120,44750
4,67,99.3,0,51935,3759.2,59140,44777
4,67,99.3,0,51025,3759.2,59154,44802
4,67,99.3,0,49790,3759.2,59158,44815
4,67,99.3,0,48327,3759.2,59166,44830
4,67,99.3,0,46717,3759.2,59168,44832
4,67,99.3,0,45057,3759.2,59165,44839
4,67,99.3,0,43409,3759.2,59174,44844
4,67,99.3,0,41841,3759.2,59182,44850
4,67,99.3,0,40416,3759.2,59188,44859
4,67,99.3,0,39134,3759.2,59199,44874
4,67,99.3,0,38030,3759.2,59205,44890
4,67,99.3,0,37103,3759.2,59219,44914
4,67,99.3,0,36353,3759.2,59233,44939
4,67,99.3,0,35766,3759.2,59252,44965
4,67,99.3,0,35310,3759.2,59269,44998
4,67,99.3,0,34950,3759.2,59290,45037
4,67,99.3,0,34656,3759.2,59306,45074
4,67,99.3,0,34377,3759.2,59324,45114
4,67,99.3,0,34098,3759.2,59335,45152
4,67,99.3,0,33767,3759.2,59346,45191
4,67,99.3,0,33351,3759.2,59354,45225
4,67,99.3,0,32834,3759.2,59360,45258
4,67,99.3,0,32214,3759.2,59371,45287
4,67,99.3,0,31474,3759.2,59381,45316
4,67,99.3,0,30613,3759.2,59395,45341
4,67,99.3,0,29648,3759.2,59413,45370
4,67,99.3,0,28596,3759.2,59438,45401
4,67,99.3,0,27490,3759.2,59456,45420
4,67,99.3,0,26330,3759.2,59475,45449
4,67,99.3,0,25149,3759.2,59495,45472
4,67,99.3,0,23966,3759.2,59502,45501
4,67,99.3,0,22798,3759.2,59502,45524
4,67,99.3,0,21678,3759.2,59487,45543
4,67,99.3,0,20625,3759.2,59468,45564
4,67,99.3,0,19638,3759.2,59450,45582
4,67,99.3,0,18718,3759.2,59437,45603
4,67,99.3,0,17883,3759.2,59435,45613
4,67,99.3,0,17133,3759.2,59445,45621
4,67,99.3,0,16450,3759.2,59460,45618
4,67,99.3,0,15853,3759.2,59496,45617
4,67,99.3,0,15341,3759.2,59515,45622
4,67,99.3,0,14898,3759.2,59529,45625
4,67,99.3,0,14558,3759.2,59535,45632
4,67,99.3,0,14286,3759.2,59535,45643
4,67,99.3,0,14083,3759.2,59529,45663
4,67,99.3,0,13966,3759.2,59516,45682
4,67,99.3,0,13918,3759.2,59504,45715
4,67,99.3,0,13887,3759.2,59496,45745
4,67,99.3,0,13891,3759.2,59495,45777
4,67,99.3,0,13912,3759.2,59496,45802
4,67,99.3,0,13899,3759.2,59501,45833
4,67,99.3,0,13851,3759.2,59510,45857
4,67,99.3,0,13768,3759.2,59509,45873
4,67,99.3,0,13599,3759.2,59516,45895
4,67,99.3,0,13360,3759.2,59523,45908
4,67,99.3,0,13052,3759.2,59536,45925
4,67,99.3,0,12675,3759.2,59557,45941
4,67,99.3,0,12228,3759.2,59570,45959
4,67,99.3,0,11747,3759.2,59584,45974
4,67,99.3,0,11249,3759.2,59587,45993
4,67,99.3,0,10733,3759.2,59582,45997
4,67,99.3,0,10235,3759.2,59570,45987
4,67,99.3,0,9755,3759.2,59530,45934
4,67,99.3,0,9327,3759.2,59447,45805
4,67,99.0,0,8969,3759.2,59297,45557
4,67,99.0,0,8751,3759.2,59060,45189
4,67,99.0,0,8795,3759.2,58805,44809
4,67,99.0,0,9257,3759.2,58617,44530
4,67,99.0,0,10294,3759.2,58503,44341
4,67,99.0,0,12011,3759.2,58429,44227
4,67,99.0,0,14567,3759.2,58395,44165
4,67,99.0,0,17997,3759.2,58380,44140
4,67,99.0,0,22272,3759.2,58381,44138
4,67,99.0,0,27310,3759.2,58385,44147
4,67,99.0,0,32925,3759.2,58394,44157
4,67,99.0,0,38931,3759.2,58405,44179
4,67,99.0,0,45039,3759.2,58413,44195
4,67,99.0,0,51050,3759.2,58427,44209
4,67,99.0,0,56673,3759.2,58430,44215
4,67,99.0,0,61744,3759.2,58437,44218
4,67,99.0,0,62258,3759.2,58439,44213
4,67,99.0,0,62258,3759.2,58443,44208
4,67,99.0,0,62258,3759.2,58449,44201
4,67,99.0,8,62258,3759.2,58463,44204
4,67,99.0,0,62258,3759.2,58476,44214
4,67,99.0,0,62258,3759.2,58498,44234
4,67,99.0,0,61989,3759.2,58527,44259
4,67,99.0,0,61341,3759.2,58559,44292
4,67,99.0,0,60413,3759.2,58596,44327
4,67,99.0,0,59291,3759.2,58621,44355
4,67,99.0,0,58011,3759.2,58650,44383
4,67,99.0,0,56672,3759.2,58664,44398
4,67,99.0,0,55309,3759.2,58682,44412
4,67,99.0,0,53983,3759.2,58697,44426
4,67,99.0,0,52695,3759.2,58698,44428
4,67,99.0,0,51493,3759.2,58705,44433
4,67,99.0,0,50388,3759.2,58715,44438
4,67,99.0,0,49382,3759.2,58730,44455
4,67,99.0,0,48485,3759.2,58743,44467
4,67,99.0,0,47699,3759.2,58752,44483
4,67,99.0,0,47023,3759.2,58757,44501
4,67,99.0,0,46445,3759.2,58767,44525
4,67,99.0,0,45940,3759.2,58794,44569
4,67,99.0,0,45497,3759.2,58823,44622
4,67,99.0,0,45078,3759.2,58840,44669
4,67,99.0,0,44670,3759.2,58856,44720
4,67,99.0,0,44237,3759.2,58880,44781
4,67,99.0,0,43753,3759.2,58931,44853
4,67,99.0,0,43194,3759.2,58995,44932
4,67,99.0,0,42547,3759.2,59074,45011
4,67,99.0,0,41786,3759.2,59146,45086
4,67,99.0,0,40910,3759.2,59209,45155
4,67,99.0,0,39870,3759.2,59268,45218
4,67,99.0,0,38689,3759.2,59316,45277
4,67,99.0,0,37379,3759.2,59357,45329
4,67,99.0,0,35927,3759.2,59391,45371
4,67,99.0,0,34356,3759.2,59421,45407
4,67,99.0,0,32704,3759.2,59441,45443
4,67,99.0,0,30994,3759.2,59461,45474
4,67,99.0,0,29266,3759.2,59487,45506
4,67,99.0,0,27558,3759.2,59512,45540
4,67,99.0,0,25883,3759.2,59535,45572
4,67,99.0,0,24293,3759.2,59559,45609
4,67,99.0,0,22801,3759.2,59586,45652
4,67,99.0,0,21434,3759.2,59620,45694
4,67,99.0,0,20193,3759.2,59657,45734
4,67,99.0,0,19091,3759.2,59694,45774
4,67,99.0,0,18103,3759.2,59721,45811
4,67,99.0,0,17216,3759.2,59749,45841
4,67,99.0,0,16419,3759.2,59766,45866
4,67,99.0,0,15711,3759.2,59785,45892
4,67,99.0,0,15080,3759.2,59800,45920
4,67,99.0,0,14500,3759.2,59832,45955
4,67,99.0,0,13945,3759.2,59861,45990
4,67,99.0,0,13429,3759.2,59881,46012
4,67,99.0,0,12952,3759.2,59890,46036
4,67,99.0,0,12488,3759.2,59897,46055
4,67,99.0,0,12037,3759.2,59910,46078
4,67,99.0,0,11598,3759.2,59934,46101
4,67,99.0,0,11160,3759.2,59969,46132
4,67,99.0,0,10722,3759.2,60000,46159
4,67,99.0,0,10311,3759.2,60033,46190
4,67,99.0,0,9925,3759.2,60064,46220
4,67,99.0,0,9552,3759.2,60090,46251
4,67,99.0,0,9180,3759.2,60113,46277
4,67,99.0,0,8808,3759.2,60128,46303
4,67,99.0,0,8462,3759.2,60143,46326
4,67,99.0,0,8117,3759.2,60153,46341
4,67,99.0,0,7785,3759.2,60151,46339
4,67,99.0,0,7466,3759.2,60135,46309
4,67,99.0,0,7174,3759.2,60089,46230
4,67,99.0,0,6908,3759.2,59987,46049
4,67,99.0,0,6733,3759.2,59799,45746
4,67,99.0,0,6675,3759.2,59533,45345
4,67,99.0,0,6863,3759.2,59317,45016
4,67,99.0,0,7390,3759.2,59177,44807
4,67,99.0,0,8396,3759.2,59105,44689
4,67,99.0,0,9986,3759.2,59075,44639
4,67,99.0,0,12199,3759.2,59070,44623
4,67,99.0,0,15024,3759.2,59083,44639
4,67,99.0,0,18436,3759.2,59108,44677
4,67,99.0,0,22296,3759.2,59140,44717
4,67,99.0,0,26465,3759.2,59175,44765
4,67,99.0,0,30763,3759.2,59205,44807
4,67,99.3,0,35024,3759.2,59233,44838
4,67,99.3,0,39050,3759.2,59257,44865
4,67,99.3,0,42679,3759.2,59289,44888
4,67,99.3,0,45787,3759.2,59331,44903
4,67,99.3,0,48293,3759.2,59375,44915
4,67,99.3,8,50141,3759.2,59406,44919
4,67,99.3,0,51304,3759.2,59429,44928
4,67,99.3,0,51846,3759.2,59455,44950
4,67,99.3,0,51819,3759.2,59492,44983
4,67,99.3,0,51277,3759.2,59530,45028
4,67,99.3,0,50351,3759.2,59555,45070
4,67,99.3,0,49106,3759.2,59569,45109
4,67,99.3,0,47635,3759.2,59575,45136
4,67,99.3,0,46016,3759.2,59580,45151
4,67,99.3,0,44342,3759.2,59578,45164
4,67,99.3,0,42665,3759.2,59580,45175
4,67,99.3,0,41052,3759.2,59571,45177
4,67,99.3,0,39541,3759.2,59559,45174
4,67,99.3,0,38160,3759.2,59533,45162
4,67,99.3,0,36936,3759.2,59513,45154
4,67,99.3,0,35896,3759.2,59495,45150
4,67,99.3,0,35067,3759.2,59479,45155
4,67,99.3,0,34425,3759.2,59477,45175
4,67,99.3,0,33955,3759.2,59472,45196
4,67,99.3,0,33633,3759.2,59472,45223
4,67,99.3,0,33458,3759.2,59489,45257
4,67,99.3,0,33378,3759.2,59507,45303
4,67,99.3,0,33366,3759.2,59525,45349
4,67,99.3,0,33367,3759.2,59554,45410
4,67,99.3,0,33341,3759.2,59581,45469
4,67,99.3,0,33273,3759.2,59608,45527
4,67,99.3,0,33096,3759.2,59632,45589
4,67,99.3,0,32781,3759.2,59654,45646
4,67,99.3,0,32313,3759.2,59678,45708
4,67,99.3,0,31691,3759.2,59705,45766
4,67,99.3,0,30887,3759.2,59734,45819
4,67,99.3,0,29915,3759.2,59760,45870
4,67,99.3,0,28759,3759.2,59781,45917
4,67,99.3,0,27474,3759.2,59800,45963
4,67,99.3,0,26060,3759.2,59808,46000
4,67,99.3,0,24559,3759.2,59814,46029
4,67,99.3,0,23013,3759.2,59816,46060
4,67,99.3,0,21423,3759.2,59820,46083
4,67,99.3,0,19871,3759.2,59823,46110
4,67,99.3,0,18346,3759.2,59829,46134
4,67,99.3,0,16902,3759.2,59828,46153
4,67,99.3,0,15571,3759.2,59830,46179
4,67,99.3,0,14364,3759.2,59828,46195
4,67,99.3,0,13298,3759.2,59843,46219
4,67,99.3,0,12372,3759.2,59855,46233
4,67,99.3,0,11587,3759.2,59878,46254
4,67,99.3,0,10943,3759.2,59896,46278
4,67,99.3,0,10425,3759.2,59911,46299
4,67,99.3,0,10007,3759.2,59921,46326
4,67,99.3,0,9701,3759.2,59921,46346
4,67,99.3,0,9480,3759.2,59912,46362
4,67,99.3,0,9301,3759.2,59898,46376
4,67,99.3,0,9165,3759.2,59894,46394
4,67,99.3,0,9043,3759.2,59898,46409
4,67,99.3,0,8949,3759.2,59909,46429
4,67,99.3,0,8869,3759.2,59926,46447
4,67,99.3,0,8790,3759.2,59943,46466
4,67,99.3,0,8710,3759.2,59957,46478
4,67,99.3,0,8617,3759.2,59973,46481
4,67,99.3,0,8495,3759.2,59978,46467
4,67,99.3,0,8374,3759.2,59954,46410
4,67,99.3,0,8280,3759.2,59899,46287
4,67,99.3,0,8216,3759.2,59760,46041
4,67,99.3,0,8236,3759.2,59538,45684
4,67,99.3,0,8440,3759.2,59288,45308
4,67,99.3,0,8913,3759.2,59105,45041
4,67,99.3,0,9825,3759.2,58993,44881
4,67,99.3,0,11288,3759.2,58937,44795
4,67,99.3,0,13390,3759.2,58922,44759
4,67,99.3,0,16173,3759.2,58927,44763
4,67,99.3,0,19597,3759.2,58939,44781
4,67,99.3,0,23553,3759.2,58966,44821
4,67,99.3,0,27918,3759.2,58994,44865
4,67,99.3,0,32524,3759.2,59020,44907
4,67,99.3,0,37190,3759.2,59045,44943
4,67,99.3,0,41698,3759.2,59075,44978
4,67,99.3,0,45843,3759.2,59093,44999
4,67,99.3,0,49489,3759.2,59119,45014
4,67,99.3,0,52492,3759.2,59140,45026
4,67,99.3,0,54804,3759.2,59160,45040
4,67,99.3,8,56410,3759.2,59180,45060
4,67,99.3,0,57297,3759.2,59197,45083
4,67,99.3,0,57521,3759.2,59219,45118
4,67,99.3,0,57155,3759.2,59240,45154
4,67,99.3,0,56285,3759.2,59264,45188
4,67,99.3,0,55013,3759.2,59290,45222
4,67,99.3,0,53439,3759.2,59319,45246
4,67,99.3,0,51678,3759.2,59345,45259
4,67,99.3,0,49786,3759.2,59370,45264
4,67,99.3,0,47864,3759.2,59383,45262
4,67,99.3,0,45998,3759.2,59402,45257
4,67,99.3,0,44231,3759.2,59409,45246
4,67,99.3,0,42621,3759.2,59417,45238
4,67,99.3,0,41211,3759.2,59425,45235
4,67,99.3,0,40030,3759.2,59431,45238
4,67,99.1,0,39064,3759.2,59448,45254
4,67,99.1,0,38359,3759.2,59471,45275
4,67,99.1,0,37842,3759.2,59508,45315
4,67,99.1,0,37513,3759.2,59544,45358
4,67,99.1,0,37330,3759.2,59591,45411
4,67,99.1,0,37250,3759.2,59630,45467
4,67,99.1,0,37199,3759.2,59677,45543
4,67,99.1,0,37147,3759.2,59722,45614
4,67,99.1,0,37036,3759.2,59775,45686
4,67,99.1,0,36792,3759.2,59826,45762
4,67,99.1,0,36384,3759.2,59876,45827
4,67,99.1,0,35767,3759.2,59926,45898
4,67,99.1,0,34924,3759.2,59969,45959
4,67,99.1,0,33855,3759.2,60006,46010
4,67,99.1,0,32558,3759.2,60045,46056
4,67,99.1,0,31046,3759.2,60086,46101
4,67,99.1,0,29334,3759.2,60126,46143
4,67,99.1,0,27512,3759.2,60165,46182
4,67,99.1,0,25579,3759.2,60209,46225
4,67,99.1,0,23596,3759.2,60235,46253
4,67,99.1,0,21610,3759.2,60266,46288
4,67,99.1,0,19680,3759.2,60289,46318
4,67,99.1,0,17823,3759.2,60312,46352
4,67,99.1,0,16086,3759.2,60333,46381
4,67,99.1,0,14484,3759.2,60351,46406
4,67,99.1,0,13033,3759.2,60367,46434
4,67,99.1,0,11748,3759.2,60379,46455
4,67,99.1,0,10630,3759.2,60394,46480
4,67,99.1,0,9680,3759.2,60405,46501
4,67,99.1,0,8882,3759.2,60423,46525
4,67,99.1,0,8221,3759.2,60433,46550
4,67,99.1,0,7682,3759.2,60444,46569
4,67,99.1,0,7265,3759.2,60454,46594
4,67,99.1,0,6910,3759.2,60465,46612
4,67,99.1,0,6615,3759.2,60479,46637
4,67,99.1,0,6366,3759.2,60499,46657
4,67,99.1,0,6179,3759.2,60516,46680
4,67,99.1,0,5991,3759.2,60528,46700
4,67,99.1,0,5819,3759.2,60542,46721
4,67,99.1,0,5648,3759.2,60554,46733
4,67,99.1,0,5476,3759.2,60561,46736
4,67,99.1,0,5305,3759.2,60553,46713
4,67,99.1,0,5134,3759.2,60521,46649
4,67,99.1,0,4964,3759.2,60441,46503
4,67,99.1,0,4839,3759.2,60273,46232
4,67,99.1,0,4836,3759.2,60022,45852
4,67,99.1,0,5046,3759.2,59775,45498
4,67,99.1,0,5605,3759.2,59613,45267
4,67,99.1,0,6665,3759.2,59515,45133
4,67,99.1,0,8333,3759.2,59460,45062
4,67,99.1,0,10699,3759.2,59441,45046
4,67,99.1,0,13796,3759.2,59439,45046
4,67,99.1,0,17549,3759.2,59446,45069
4,67,99.1,0,21856,3759.2,59466,45106
4,67,99.1,0,26569,3759.2,59487,45141
4,67,99.1,0,31494,3759.2,59511,45177
4,67,99.1,0,36423,3759.2,59535,45215
4,67,99.1,0,41151,3759.2,59555,45243
4,67,99.1,0,45458,3759.2,59572,45269
4,67,99.1,0,49216,3759.2,59581,45287
4,67,99.1,0,52313,3759.2,59581,45300
4,67,99.1,0,54639,3759.2,59578,45315
4,67,99.1,8,56208,3759.2,59559,45320
4,67,99.1,0,57035,3759.2,59559,45338
4,67,99.1,0,57183,3759.2,59548,45352
4,67,99.1,0,56743,3759.2,59545,45382
4,67,99.1,0,55779,3759.2,59545,45413
4,67,99.1,0,54444,3759.2,59546,45433
4,67,99.1,0,52831,3759.2,59543,45445
4,67,99.1,0,51033,3759.2,59546,45449
4,67,99.1,0,49172,3759.2,59543,45450
4,67,99.1,0,47310,3759.2,59535,45440
4,67,99.1,0,45539,3759.2,59532,45434
4,67,99.1,0,43906,3759.2,59523,45425
4,67,99.1,0,42487,3759.2,59524,45426
4,67,99.1,0,41268,3759.2,59522,45433
4,67,99.1,0,40281,3759.2,59525,45447
4,67,99.1,0,39526,3759.2,59538,45470
4,67,99.1,0,39004,3759.2,59542,45499
4,67,99.1,0,38668,3759.2,59554,45530
4,67,99.1,0,38489,3759.2,59560,45570
4,67,99.1,0,38404,3759.2,59568,45610
4,67,99.1,0,38365,3759.2,59583,45657
4,67,99.1,0,38327,3759.2,59598,45707
4,67,99.1,0,38241,3759.2,59619,45755
4,67,99.1,0,38060,3759.2,59646,45805
4,67,99.1,0,37767,3759.2,59681,45860
4,67,99.1,0,37314,3759.2,59724,45919
4,67,99.1,0,36669,3759.2,59761,45975
4,67,99.1,0,35846,3759.2,59800,46030
4,67,99.1,0,34829,3759.2,59836,46080
4,67,99.1,0,33632,3759.2,59878,46133
4,67,99.1,0,32254,3759.2,59918,46180
4,67,99.1,0,30758,3759.2,59953,46230
4,67,99.1,0,29112,3759.2,59980,46273
4,67,99.1,0,27380,3759.2,59997,46306
4,67,99.1,0,25610,3759.2,60012,46340
4,67,99.1,0,23821,3759.2,60027,46371
4,67,99.1,0,22027,3759.2,60040,46393
4,67,99.1,0,20279,3759.2,60071,46415
4,68,99.0,0,18610,3759.2,60096,46433
4,68,99.0,0,17036,3759.2,60118,46458
4,68,99.0,0,15608,3759.2,60145,46487
4,68,99.0,0,14293,3759.2,60168,46515
4,68,99.0,0,13140,3759.2,60192,46536
4,68,99.0,0,12134,3759.2,60222,46557
4,68,99.0,0,11258,3759.2,60252,46575
4,68,99.0,0,10529,3759.2,60289,46599
4,68,99.0,0,9915,3759.2,60323,46622
4,68,99.0,0,9399,3759.2,60355,46647
4,68,99.0,0,8982,3759.2,60380,46665
4,68,99.0,0,8630,3759.2,60401,46683
4,68,99.0,0,8343,3759.2,60414,46703
4,68,99.0,0,8090,3759.2,60418,46724
4,68,99.0,0,7870,3759.2,60416,46731
4,68,99.0,0,7649,3759.2,60404,46726
4,68,99.0,0,7446,3759.2,60376,46695
4,68,99.0,0,7259,3759.2,60335,46622
4,68,99.0,0,7105,3759.2,60235,46451
4,68,99.0,0,7016,3759.2,60059,46162
4,68,99.0,0,7059,3759.2,59799,45767
4,68,99.0,0,7364,3759.2,59567,45420
4,68,99.0,0,8061,3759.2,59406,45187
4,68,99.0,0,9314,3759.2,59320,45043
4,68,99.0,0,11271,3759.2,59271,44958
4,68,99.0,0,13999,3759.2,59253,44925
4,68,99.0,0,17516,3759.2,59259,44916
4,68,99.0,0,21776,3759.2,59277,44925
4,68,99.0,0,26670,3759.2,59302,44949
4,68,99.0,0,32008,3759.2,59327,44980
4,68,99.0,0,37579,3759.2,59350,45011
4,68,99.0,0,43167,3759.2,59370,45043
4,68,99.0,0,48515,3759.2,59380,45065
4,68,99.0,0,53436,3759.2,59390,45084
4,68,99.0,0,57742,3759.2,59389,45087
4,68,99.0,0,61297,3759.2,59382,45087
4,68,99.0,0,62258,3759.2,59383,45084
4,68,99.0,8,62258,3759.2,59383,45090
4,68,99.0,0,62258,3759.2,59388,45104
4,68,99.0,0,62258,3759.2,59401,45124
4,68,99.0,0,61990,3759.2,59409,45149
4,68,99.0,0,61257,3759.2,59416,45165
4,68,99.0,0,60159,3759.2,59421,45178
4,68,99.0,0,58780,3759.2,59428,45189
4,68,99.0,0,57247,3759.2,59435,45196
4,68,99.0,0,55617,3759.2,59441,45193
4,68,99.0,0,53988,3759.2,59441,45187
4,68,99.0,0,52431,3759.2,59442,45178
4,68,99.0,0,50986,3759.2,59443,45178
4,68,99.0,0,49697,3759.2,59443,45182
4,68,99.0,0,48591,3759.2,59443,45192
4,68,99.0,0,47668,3759.2,59449,45206
4,68,99.0,0,46944,3759.2,59451,45226
4,68,99.0,0,46404,3759.2,59455,45246
4,68,99.0,0,46006,3759.2,59469,45274
4,68,99.0,0,45735,3759.2,59488,45310
4,68,99.0,0,45550,3759.2,59514,45352
4,68,99.0,0,45407,3759.2,59539,45393
4,68,99.0,0,45250,3759.2,59565,45438
4,68,99.0,0,45049,3759.2,59601,45489
4,68,99.0,0,44791,3759.2,59633,45535
4,68,99.0,0,44403,3759.2,59676,45589
4,68,99.0,0,43900,3759.2,59704,45639
4,68,99.0,0,43251,3759.2,59746,45691
4,68,99.0,0,42429,3759.2,59788,45745
4,68,99.0,0,41446,3759.2,59829,45794
4,68,99.0,0,40330,3759.2,59866,45849
4,68,99.0,0,39067,3759.2,59902,45903
4,68,99.0,0,37685,3759.2,59940,45960
4,68,99.0,0,36211,3759.2,59974,46012
4,68,99.0,0,34631,3759.2,60006,46067
4,68,99.0,0,33000,3759.2,60029,46112
4,68,99.0,0,31320,3759.2,60046,46152
4,68,99.0,0,29634,3759.2,60062,46185
4,68,99.0,0,27956,3759.2,60084,46220
4,68,99.0,0,26289,3759.2,60101,46251
4,68,99.0,0,24676,3759.2,60124,46281
4,68,99.0,0,23133,3759.2,60150,46314
4,68,99.0,0,21690,3759.2,60179,46348
4,68,99.0,0,20333,3759.2,60205,46378
4,68,99.0,0,19063,3759.2,60237,46414
4,68,99.0,0,17895,3759.2,60257,46445
4,68,99.0,0,16830,3759.2,60268,46472
4,68,99.0,0,15867,3759.2,60288,46497
4,68,99.0,0,15008,3759.2,60307,46529
4,68,99.0,0,14223,3759.2,60328,46558
4,68,99.0,0,13497,3759.2,60348,46583
4,68,99.0,0,12845,3759.2,60366,46608
4,68,99.0,0,12252,3759.2,60371,46608
4,68,99.0,0,11705,3759.2,60360,46580
4,68,99.0,0,11187,3759.2,60304,46479
4,68,99.0,0,10744,3759.2,60167,46254
4,68,99.0,0,10420,3759.2,59935,45909
4,68,99.0,0,10260,3759.2,59685,45557
4,68,99.0,0,10384,3759.2,59489,45295
4,68,99.0,0,10940,3759.2,59363,45118
4,68,99.0,0,12048,3759.2,59297,45018
4,68,99.0,0,13798,3759.2,59273,44963
4,68,99.0,0,16265,3759.2,59288,44962
4,68,99.0,0,19408,3759.2,59324,44985
4,68,99.0,0,23155,3759.2,59375,45031
4,68,99.0,0,27390,3759.2,59428,45090
4,68,99.0,0,31924,3759.2,59487,45156
4,68,99.0,0,36550,3759.2,59526,45209
4,68,99.0,0,41055,3759.2,59570,45263
4,68,99.0,0,45236,3759.2,59606,45305
4,68,99.0,0,48940,3759.2,59631,45336
4,68,99.0,0,51995,3759.2,59658,45357
4,68,99.0,0,54324,3759.2,59673,45374
4,68,99.0,8,55864,3759.2,59692,45392
4,68,99.0,0,56646,3759.2,59709,45413
4,68,99.0,0,56701,3759.2,59727,45447
4,68,99.0,0,56118,3759.2,59745,45474
4,68,99.0,0,55006,3759.2,59758,45501
4,68,99.0,0,53439,3759.2,59765,45522
4,68,99.0,0,51568,3759.2,59761,45531
4,68,99.0,0,49500,3759.2,59758,45537
4,68,99.0,0,47354,3759.2,59742,45530
4,68,99.0,0,45221,3759.2,59735,45525
4,68,99.0,0,43191,3759.2,59721,45515
4,68,99.0,0,41326,3759.2,59712,45508
4,68,99.0,0,39685,3759.2,59713,45512
4,68,99.0,0,38301,3759.2,59711,45523
4,68,99.0,0,37205,3759.2,59712,45539
4,68,99.0,0,36382,3759.2,59714,45562
4,68,99.0,0,35818,3759.2,59721,45589
4,68,99.0,0,35484,3759.2,59727,45617
4,68,99.0,0,35319,3759.2,59736,45649
4,68,99.0,0,35292,3759.2,59756,45691
4,68,99.0,0,35328,3759.2,59768,45730
4,68,99.0,0,35395,3759.2,59792,45780
4,68,99.0,0,35431,3759.2,59824,45828
4,68,99.0,0,35373,3759.2,59852,45873
4,68,99.0,0,35206,3759.2,59878,45928
4,68,99.0,0,34881,3759.2,59906,45973
4,68,99.0,0,34383,3759.2,59935,46026
4,68,99.0,0,33679,3759.2,59956,46070
4,68,99.0,0,32799,3759.2,59977,46117
4,68,99.0,0,31741,3759.2,60005,46163
4,68,99.0,0,30522,3759.2,60029,46206
4,68,99.0,0,29155,3759.2,60053,46256
4,68,99.0,0,27706,3759.2,60076,46302
4,68,99.0,0,26156,3759.2,60100,46346
4,68,99.0,0,24571,3759.2,60118,46390
4,68,99.0,0,22950,3759.2,60143,46435
4,68,99.0,0,21327,3759.2,60154,46469
4,68,99.0,0,19748,3759.2,60169,46501
4,68,99.0,0,18200,3759.2,60180,46525
4,68,99.0,0,16698,3759.2,60199,46549
4,68,99.0,0,15307,3759.2,60216,46579
4,68,99.0,0,13995,3759.2,60237,46601
4,68,99.0,0,12796,3759.2,60250,46622
4,68,99.0,0,11709,3759.2,60267,46646
4,68,99.0,0,10718,3759.2,60278,46667
4,68,99.0,0,9857,3759.2,60297,46690
4,68,99.0,0,9076,3759.2,60310,46715
4,68,99.0,0,8425,3759.2,60322,46734
4,68,99.0,0,7854,3759.2,60335,46754
4,68,99.0,0,7365,3759.2,60347,46782
4,68,99.0,0,6956,3759.2,60357,46810
4,68,99.0,0,6580,3759.2,60372,46832
4,68,99.0,0,6269,3759.2,60386,46856
4,68,99.0,0,5990,3759.2,60394,46867
4,68,99.0,0,5744,3759.2,60399,46874
4,68,99.0,0,5499,3759.2,60384,46844
4,68,99.0,0,5286,3759.2,60338,46749
4,68,99.0,0,5089,3759.2,60216,46536
4,68,99.0,0,4957,3759.2,60007,46189
4,68,99.0,0,4986,3759.2,59744,45786
4,68,99.0,0,5289,3759.2,59544,45483
4,68,99.0,0,6042,3759.2,59423,45297
4,68,99.0,0,7389,3759.2,59355,45191
4,68,99.0,0,9460,3759.2,59329,45146
4,68,99.0,0,12304,3759.2,59326,45135
4,68,99.0,0,15922,3759.2,59339,45149
4,68,99.0,0,20221,3759.2,59366,45185
4,68,99.0,0,25044,3759.2,59396,45223
4,68,99.0,0,30237,3759.2,59435,45267
4,68,99.0,0,35562,3759.2,59456,45305
4,68,99.0,0,40806,3759.2,59481,45341
4,68,99.0,0,45720,3759.2,59492,45360
4,68,99.0,0,50119,3759.2,59495,45374
4,68,99.0,0,53850,3759.2,59497,45373
4,68,99.0,0,56781,3759.2,59497,45376
4,68,99.0,8,58926,3759.2,59493,45368
4,68,99.0,0,60270,3759.2,59502,45377
4,68,99.0,0,60844,3759.2,59515,45397
4,68,99.0,0,60733,3759.2,59531,45420
4,68,99.0,0,60051,3759.2,59549,45442
4,68,99.0,0,58912,3759.2,59571,45470
4,68,99.0,0,57416,3759.2,59583,45492
4,68,99.0,0,55693,3759.2,59604,45513
4,68,99.0,0,53857,3759.2,59621,45524
4,68,99.0,0,51988,3759.2,59634,45536
4,68,99.0,0,50152,3759.2,59642,45542
4,68,99.0,0,48413,3759.2,59647,45548
4,68,99.0,0,46820,3759.2,59649,45551
4,68,99.0,0,45406,3759.2,59650,45556
4,68,99.0,0,44170,3759.2,59656,45566
4,68,99.0,0,43130,3759.2,59658,45579
4,69,98.9,0,42286,3759.2,59666,45596
4,69,98.9,0,41622,3759.2,59684,45622
4,69,98.9,0,41105,3759.2,59703,45648
4,69,98.9,0,40720,3759.2,59725,45676
4,69,98.9,0,40416,3759.2,59748,45709
4,69,98.9,0,40161,3759.2,59779,45748
4,69,98.9,0,39906,3759.2,59806,45784
4,69,98.9,0,39617,3759.2,59838,45827
4,69,98.9,0,39277,3759.2,59866,45875
4,69,98.9,0,38836,3759.2,59895,45921
4,69,98.9,0,38293,3759.2,59929,45968
4,69,98.9,0,37631,3759.2,59967,46023
4,69,98.9,0,36816,3759.2,60004,46081
4,69,98.9,0,35847,3759.2,60046,46138
4,69,98.9,0,34740,3759.2,60083,46197
4,69,98.9,0,33510,3759.2,60123,46260
4,69,98.9,0,32141,3759.2,60157,46314
4,69,98.9,0,30613,3759.2,60191,46367
4,69,98.9,0,28995,3759.2,60216,46413
4,69,98.9,0,27305,3759.2,60242,46452
4,69,98.9,0,25524,3759.2,60267,46492
4,69,98.9,0,23704,3759.2,60290,46521
4,69,98.9,0,21864,3759.2,60308,46550
4,69,98.9,0,20055,3759.2,60336,46582
4,69,98.9,0,18261,3759.2,60362,46606
4,69,98.9,0,16551,3759.2,60382,46624
4,69,98.9,0,14925,3759.2,60404,46646
4,69,98.9,0,13436,3759.2,60421,46663
4,69,98.9,0,12084,3759.2,60438,46684
4,69,98.9,0,10870,3759.2,60456,46712
4,69,98.9,0,9794,3759.2,60471,46732
4,69,98.9,0,8873,3759.2,60484,46762
4,69,98.9,0,8091,3759.2,60497,46788
4,69,98.9,0,7447,3759.2,60512,46821
4,69,98.9,0,6906,3759.2,60525,46854
4,69,98.9,0,6453,3759.2,60544,46879
4,69,98.9,0,6069,3759.2,60552,46910
4,69,98.9,0,5737,3759.2,60569,46940
4,69,98.9,0,5440,3759.2,60587,46966
4,69,98.9,0,5143,3759.2,60604,46991
4,69,98.9,0,4847,3759.2,60622,47017
4,69,98.9,0,4518,3759.2,60631,47035
4,69,98.9,0,4171,3759.2,60633,47039
4,69,98.9,0,3791,3759.2,60618,47005
4,69,98.9,0,3394,3759.2,60566,46903
4,69,98.9,0,3276,3759.2,60428,46673
4,69,98.9,0,3276,3759.2,60207,46308
4,69,98.9,0,3276,3759.2,59945,45910
4,69,98.9,0,3478,3759.2,59748,45616
4,69,98.9,0,4167,3759.2,59629,45437
4,69,98.9,0,5510,3759.2,59559,45338
4,69,98.9,0,7642,3759.2,59520,45286
4,69,98.9,0,10613,3759.2,59516,45279
4,69,98.9,0,14425,3759.2,59523,45297
4,69,98.9,0,18946,3759.2,59542,45323
4,69,98.9,0,24065,3759.2,59566,45365
4,69,98.9,0,29568,3759.2,59587,45397
4,69,98.9,0,35209,3759.2,59610,45434
4,69,98.9,0,40766,3759.2,59626,45459
4,69,98.9,0,45979,3759.2,59639,45475
4,69,98.9,0,50636,3759.2,59651,45486
4,69,98.9,0,54597,3759.2,59659,45490
4,69,98.9,0,57756,3759.2,59663,45485
4,69,98.9,8,60061,3759.2,59666,45485
4,69,98.9,0,61528,3759.2,59679,45492
4,69,98.9,0,62227,3759.2,59694,45510
4,69,98.9,0,62210,3759.2,59712,45538
4,69,98.9,0,61547,3759.2,59737,45574
4,69,98.9,0,60408,3759.2,59761,45612
4,69,98.9,0,58896,3759.2,59781,45644
4,69,98.9,0,57149,3759.2,59797,45671
4,69,98.9,0,55249,3759.2,59808,45690
4,69,98.9,0,53282,3759.2,59808,45697
4,69,98.9,0,51315,3759.2,59799,45697
4,69,98.9,0,49433,3759.2,59790,45690
4,69,98.9,0,47670,3759.2,59779,45682
4,69,98.9,0,46058,3759.2,59777,45676
4,69,98.9,0,44668,3759.2,59772,45675
4,69,98.9,0,43464,3759.2,59777,45675
4,69,98.9,0,42498,3759.2,59787,45688
4,69,98.9,0,41754,3759.2,59802,45707
4,69,98.9,0,41180,3759.2,59820,45735
4,69,98.9,0,40812,3759.2,59841,45768
4,69,98.9,0,40565,3759.2,59864,45800
4,69,98.9,0,40386,3759.2,59892,45847
4,69,98.9,0,40276,3759.2,59922,45899
4,69,98.9,0,40165,3759.2,59953,45955
4,69,98.9,0,40002,3759.2,59987,46015
4,69,98.9,0,39735,3759.2,60016,46078
4,69,98.9,0,39309,3759.2,60050,46138
4,69,98.9,0,38708,3759.2,60081,46206
4,69,98.9,0,37913,3759.2,60111,46267
4,69,98.9,0,36887,3759.2,60141,46324
4,69,98.9,0,35647,3759.2,60178,46380
4,69,98.9,0,34210,3759.2,60214,46432
4,69,98.9,0,32555,3759.2,60247,46478
4,69,98.9,0,30718,3759.2,60274,46525
4,69,98.9,0,28768,3759.2,60299,46564
4,69,98.9,0,26688,3759.2,60322,46597
4,69,98.9,0,24567,3759.2,60338,46627
4,70,98.9,0,22424,3759.2,60352,46653
4,70,98.9,0,20294,3759.2,60368,46680
4,70,98.9,0,18251,3759.2,60384,46707
4,70,98.9,0,16312,3759.2,60397,46736
4,70,98.9,0,14515,3759.2,60410,46755
4,70,98.9,0,12878,3759.2,60412,46781
4,70,98.9,0,11402,3759.2,60425,46809
4,70,98.9,0,10140,3759.2,60438,46834
4,70,98.9,0,9041,3759.2,60446,46866
4,70,98.9,0,8102,3759.2,60452,46895
4,70,98.9,0,7326,3759.2,60465,46922
4,70,98.9,0,6693,3759.2,60469,46946
4,70,98.9,0,6133,3759.2,60479,46971
4,70,98.9,0,5663,3759.2,60488,46997
4,70,98.9,0,5265,3759.2,60502,47020
4,70,98.9,0,4922,3759.2,60515,47039
4,70,98.9,0,4579,3759.2,60536,47070
4,70,98.9,0,4237,3759.2,60552,47091
4,70,98.9,0,3895,3759.2,60571,47112
4,70,98.9,0,3572,3759.2,60581,47132
4,70,98.9,0,3276,3759.2,60598,47148
4,70,98.9,0,3276,3759.2,60615,47173
4,70,98.9,0,3276,3759.2,60619,47189
4,70,98.9,0,3276,3759.2,60633,47208
4,70,98.9,0,3276,3759.2,60643,47230
4,70,98.9,0,3276,3759.2,60646,47252
4,70,98.9,0,3276,3759.2,60648,47271
4,70,98.9,0,3276,3759.2,60658,47290
4,70,98.9,0,3276,3759.2,60668,47306
4,70,98.9,0,3276,3759.2,60666,47311
4,70,98.9,0,3276,3759.2,60667,47308
4,70,98.9,0,3276,3759.2,60652,47266
4,70,98.9,0,3276,3759.2,60601,47161
4,70,98.9,0,3276,3759.2,60465,46922
4,70,98.9,0,3276,3759.2,60236,46543
4,70,98.9,0,3464,3759.2,59954,46119
4,70,98.9,0,3996,3759.2,59749,45815
4,70,98.9,0,4997,3759.2,59634,45631
4,70,98.9,0,6622,3759.2,59575,45539
4,70,98.9,0,8998,3759.2,59556,45499
4,70,98.9,0,12141,3759.2,59559,45506
4,70,98.9,0,16020,3759.2,59573,45528
4,70,98.9,0,20594,3759.2,59603,45577
4,70,98.9,0,25664,3759.2,59635,45629
4,70,98.9,0,31032,3759.2,59664,45681
4,70,98.9,0,36466,3759.2,59683,45726
4,70,98.9,0,41742,3759.2,59712,45772
4,70,98.9,0,46617,3759.2,59734,45806
4,70,98.9,0,50895,3759.2,59750,45828
4,70,98.9,0,54429,3759.2,59760,45842
4,70,98.9,0,57168,3759.2,59761,45848
4,70,98.9,8,59016,3759.2,59769,45853
4,70,98.9,0,60021,3759.2,59778,45867
4,70,98.9,0,60215,3759.2,59798,45887
4,70,98.9,0,59727,3759.2,59816,45907
4,70,98.9,0,58668,3759.2,59832,45925
4,70,98.9,0,57150,3759.2,59851,45949
4,70,98.9,0,55316,3759.2,59865,45960
4,70,98.9,0,53292,3759.2,59867,45966
4,70,98.9,0,51189,3759.2,59865,45970
4,70,98.9,0,49101,3759.2,59857,45962
4,70,98.9,0,47108,3759.2,59849,45956
4,70,98.9,0,45303,3759.2,59837,45953
4,70,98.9,0,43735,3759.2,59828,45949
4,70,98.9,0,42421,3759.2,59821,45947
4,70,98.9,0,41360,3759.2,59826,45953
4,70,98.9,0,40570,3759.2,59833,45970
4,70,98.9,0,40035,3759.2,59842,45990
4,70,98.9,0,39724,3759.2,59858,46016
4,70,98.9,0,39589,3759.2,59871,46045
4,70,98.9,0,39600,3759.2,59897,46081
4,70,98.9,0,39659,3759.2,59918,46121
4,70,98.9,0,39734,3759.2,59947,46162
4,70,98.9,0,39777,3759.2,59975,46210
4,70,98.9,0,39755,3759.2,59997,46258
4,70,98.9,0,39603,3759.2,60029,46324
4,70,98.9,0,39304,3759.2,60053,46380
4,70,98.9,0,38824,3759.2,60083,46442
4,70,98.9,0,38147,3759.2,60109,46505
4,70,98.9,0,37255,3759.2,60135,46564
4,70,98.9,0,36164,3759.2,60164,46622
4,70,98.9,0,34871,3759.2,60186,46683
4,70,98.9,0,33393,3759.2,60210,46734
4,70,98.9,0,31727,3759.2,60222,46778
4,70,98.9,0,29940,3759.2,60240,46820
4,70,98.9,0,28047,3759.2,60243,46857
4,70,98.9,0,26083,3759.2,60255,46887
4,70,98.9,0,24096,3759.2,60258,46910
4,70,98.9,0,22123,3759.2,60266,46936
4,70,98.9,0,20195,3759.2,60269,46954
4,70,98.9,0,18382,3759.2,60287,46976
4,70,98.9,0,16683,3759.2,60301,46996
4,70,98.9,0,15134,3759.2,60321,47016
4,70,98.9,0,13717,3759.2,60329,47034
4,70,98.9,0,12485,3759.2,60339,47053
4,70,98.9,0,11436,3759.2,60347,47068
4,70,98.9,0,10555,3759.2,60358,47092
4,70,98.9,0,9858,3759.2,60356,47109
4,70,98.9,0,9312,3759.2,60358,47129
4,70,98.9,0,8884,3759.2,60357,47150
4,70,99.2,0,8574,3759.2,60359,47167
4,70,99.2,0,8348,3759.2,60358,47189
4,70,99.2,0,8172,3759.2,60359,47208
4,70,99.2,0,8047,3759.2,60363,47225
4,70,99.2,0,7921,3759.2,60364,47242
4,70,99.2,0,7830,3759.2,60369,47257
4,70,99.2,0,7738,3759.2,60376,47277
4,70,99.2,0,7613,3759.2,60390,47296
4,70,99.2,0,7472,3759.2,60400,47313
4,70,99.2,0,7330,3759.2,60418,47336
4,70,99.2,0,7156,3759.2,60434,47352
4,70,99.2,0,6964,3759.2,60447,47367
4,70,99.2,0,6756,3759.2,60459,47382
4,70,99.2,0,6532,3759.2,60464,47378
4,70,99.2,0,6308,3759.2,60451,47355
4,70,99.2,0,6084,3759.2,60413,47283
4,70,99.2,0,5877,3759.2,60314,47106
4,70,99.2,0,5738,3759.2,60123,46792
4,70,99.2,0,5751,3759.2,59829,46353
4,70,99.2,0,6049,3759.2,59568,45983
4,70,99.2,0,6802,3759.2,59400,45747
4,70,99.2,0,8142,3759.2,59301,45604
4,70,99.2,0,10256,3759.2,59250,45536
4,70,99.2,0,13212,3759.2,59232,45515
4,70,99.2,0,17029,3759.2,59241,45527
4,70,99.2,0,21660,3759.2,59265,45555
4,70,99.2,0,26943,3759.2,59289,45597
4,70,99.2,0,32648,3759.2,59324,45639
4,70,99.2,0,38595,3759.2,59356,45689
4,70,99.2,0,44490,3759.2,59389,45730
4,70,99.2,0,50086,3759.2,59415,45764
4,70,99.2,0,55140,3759.2,59441,45783
4,70,99.2,0,59491,3759.2,59463,45793
4,70,99.2,0,62258,3759.2,59471,45801
4,70,99.2,0,62258,3759.2,59474,45808
4,70,99.2,8,62258,3759.2,59476,45819
4,70,99.2,0,62258,3759.2,59497,45832
4,70,99.2,0,62172,3759.2,59544,45851
4,70,99.2,0,61547,3759.2,59596,45864
4,70,99.2,0,60453,3759.2,59628,45885
4,70,99.2,0,59006,3759.2,59647,45910
4,70,99.2,0,57304,3759.2,59651,45944
4,70,99.2,0,55461,3759.2,59651,45962
4,70,99.2,0,53577,3759.2,59639,45965
4,70,99.2,0,51721,3759.2,59636,45955
4,70,99.2,0,49965,3759.2,59637,45950
4,70,99.2,0,48365,3759.2,59649,45943
4,70,99.2,0,46950,3759.2,59666,45943
4,70,99.2,0,45733,3759.2,59691,45946
4,70,99.2,0,44730,3759.2,59722,45961
4,70,99.2,0,43940,3759.2,59759,45988
4,70,99.2,0,43350,3759.2,59789,46021
4,70,99.2,0,42946,3759.2,59819,46057
4,70,99.2,0,42671,3759.2,59846,46107
4,70,99.2,0,42482,3759.2,59877,46161
