DEVICE_ID,PULSE_BPM,SPO2_PCT,SPO2_STATUS,PLETH,BATTERY,RED_ADC,IR_ADC
4,79,98.9,0,38672,3759.2,37690,13130
4,79,98.9,0,38093,3759.2,37697,13133
4,79,98.9,0,37621,3759.2,37707,13139
4,79,98.9,0,37248,3759.2,37723,13150
4,79,98.9,0,36950,3759.2,37738,13156
4,79,98.9,0,36722,3759.2,37761,13169
4,79,98.9,0,36544,3759.2,37782,13183
4,79,98.9,0,36384,3759.2,37805,13197
4,79,98.9,0,36230,3759.2,37828,13215
4,79,98.9,0,36063,3759.2,37853,13232
4,79,98.9,0,35857,3759.2,37883,13251
4,79,98.9,0,35592,3759.2,37908,13268
4,79,98.9,0,35262,3759.2,37938,13287
4,79,98.9,0,34853,3759.2,37959,13300
4,79,98.9,0,34365,3759.2,37986,13319
4,79,98.9,0,33785,3759.2,38013,13336
4,79,98.9,0,33131,3759.2,38045,13356
4,79,98.9,0,32409,3759.2,38069,13369
4,79,98.9,0,31606,3759.2,38095,13386
4,79,98.9,0,30761,3759.2,38120,13400
4,79,98.9,0,29874,3759.2,38145,13416
4,79,98.9,0,28957,3759.2,38167,13432
4,79,98.9,0,28031,3759.2,38192,13448
4,79,98.9,0,27103,3759.2,38215,13464
4,79,98.9,0,26191,3759.2,38244,13483
4,79,98.9,0,25297,3759.2,38266,13498
4,79,98.9,0,24414,3759.2,38291,13508
4,79,98.9,0,23568,3759.2,38312,13528
4,79,98.9,0,22761,3759.2,38333,13542
4,79,98.9,0,21985,3759.2,38357,13559
4,79,98.9,0,21242,3759.2,38385,13574
4,79,98.9,0,20536,3759.2,38407,13589
4,79,98.9,0,19857,3759.2,38434,13606
4,79,98.9,0,19203,3759.2,38460,13623
4,79,98.9,0,18575,3759.2,38482,13641
4,79,98.9,0,17960,3759.2,38501,13650
4,79,98.9,0,17364,3759.2,38495,13647
4,79,98.9,0,16781,3759.2,38459,13625
4,79,98.9,0,16218,3759.2,38387,13577
4,79,98.9,0,15701,3759.2,38283,13509
4,79,98.9,0,15264,3759.2,38151,13422
4,79,98.9,0,14955,3759.2,37993,13323
4,79,98.9,0,14854,3759.2,37836,13214
4,79,98.9,0,15035,3759.2,37681,13116
4,79,98.9,0,15579,3759.2,37568,13042
4,79,98.9,0,16561,3759.2,37478,12985
4,79,98.9,0,18035,3759.2,37410,12938
4,79,98.9,0,20024,3759.2,37356,12903
4,79,98.9,0,22508,3759.2,37312,12876
4,79,98.9,0,25437,3759.2,37283,12857
4,79,98.9,0,28740,3759.2,37260,12840
4,79,98.9,0,32319,3759.2,37249,12834
4,79,98.9,0,36053,3759.2,37244,12825
4,79,98.9,0,39814,3759.2,37250,12831
4,79,98.9,0,43481,3759.2,37250,12833
4,79,98.9,0,46929,3759.2,37262,12839
4,79,98.9,0,50059,3759.2,37270,12844
4,79,98.9,0,52780,3759.2,37280,12849
4,79,98.9,0,55036,3759.2,37288,12858
4,79,98.9,0,56791,3759.2,37302,12861
4,79,98.9,8,58045,3759.2,37316,12872
4,79,98.9,0,58798,3759.2,37327,12879
4,79,98.9,0,59092,3759.2,37347,12893
4,79,98.9,0,58974,3759.2,37372,12906
4,79,98.9,0,58500,3759.2,37391,12918
4,79,98.9,0,57740,3759.2,37419,12936
4,79,98.9,0,56747,3759.2,37443,12951
4,79,98.9,0,55583,3759.2,37466,12968
4,79,98.9,0,54297,3759.2,37489,12981
4,79,98.9,0,52943,3759.2,37513,12997
4,79,98.9,0,51574,3759.2,37530,13010
4,79,98.9,0,50199,3759.2,37546,13018
4,79,98.9,0,48864,3759.2,37556,13023
4,79,98.9,0,47584,3759.2,37563,13030
4,79,98.9,0,46384,3759.2,37567,13033
4,79,98.9,0,45267,3759.2,37570,13033
4,79,98.9,0,44244,3759.2,37574,13034
4,79,98.9,0,43309,3759.2,37576,13038
4,79,98.9,0,42484,3759.2,37585,13041
4,79,98.9,0,41754,3759.2,37594,13047
4,79,98.9,0,41120,3759.2,37604,13052
4,79,98.9,0,40582,3759.2,37619,13063
4,79,98.9,0,40119,3759.2,37634,13071
4,79,98.9,0,39718,3759.2,37653,13087
4,79,98.9,0,39365,3759.2,37677,13101
4,79,98.9,0,39046,3759.2,37697,13114
4,79,98.9,0,38740,3759.2,37722,13126
4,79,98.9,0,38419,3759.2,37747,13145
4,79,98.9,0,38083,3759.2,37773,13162
4,79,98.9,0,37697,3759.2,37802,13177
4,79,98.9,0,37260,3759.2,37830,13199
4,79,98.9,0,36751,3759.2,37857,13216
4,79,98.9,0,36170,3759.2,37884,13233
4,79,98.9,0,35515,3759.2,37913,13251
4,79,98.9,0,34788,3759.2,37938,13267
4,79,98.9,0,33986,3759.2,37971,13287
4,79,98.9,0,33124,3759.2,37997,13305
4,79,98.9,0,32202,3759.2,38028,13321
4,79,98.9,0,31233,3759.2,38053,13338
4,79,98.9,0,30231,3759.2,38082,13358
4,79,98.9,0,29205,3759.2,38106,13372
4,79,98.9,0,28161,3759.2,38135,13390
4,79,98.9,0,27114,3759.2,38164,13411
4,79,98.9,0,26064,3759.2,38188,13423
4,79,98.9,0,25033,3759.2,38213,13442
4,79,98.9,0,24029,3759.2,38243,13458
4,79,98.9,0,23051,3759.2,38266,13475
4,79,98.9,0,22101,3759.2,38291,13490
4,79,98.9,0,21185,3759.2,38311,13505
4,79,98.9,0,20297,3759.2,38337,13522
4,79,98.9,0,19444,3759.2,38360,13535
4,79,98.9,0,18627,3759.2,38386,13554
4,79,98.9,0,17845,3759.2,38414,13571
4,79,98.9,0,17092,3759.2,38440,13593
4,79,98.9,0,16360,3759.2,38463,13604
4,79,98.9,0,15643,3759.2,38488,13621
4,79,98.9,0,14947,3759.2,38501,13630
4,79,98.9,0,14273,3759.2,38505,13629
4,79,98.9,0,13613,3759.2,38470,13612
4,79,98.9,0,12975,3759.2,38405,13571
4,79,98.9,0,12397,3759.2,38310,13508
4,79,98.9,0,11899,3759.2,38181,13425
4,79,98.9,0,11541,3759.2,38030,13325
4,79,98.9,0,11397,3759.2,37868,13217
4,79,98.9,0,11547,3759.2,37717,13121
4,79,98.9,0,12088,3759.2,37603,13045
4,79,98.9,0,13108,3759.2,37515,12989
4,79,98.9,0,14645,3759.2,37452,12950
4,79,98.9,0,16729,3759.2,37401,12917
4,79,98.9,0,19348,3759.2,37366,12897
4,79,98.9,0,22459,3759.2,37348,12881
4,79,98.9,0,25969,3759.2,37335,12870
4,79,98.9,0,29771,3759.2,37333,12869
4,79,98.9,0,33735,3759.2,37334,12872
4,79,98.9,0,37721,3759.2,37344,12876
4,79,98.9,0,41584,3759.2,37353,12878
4,79,98.9,0,45194,3759.2,37365,12891
4,79,98.9,0,48448,3759.2,37383,12899
4,79,98.9,0,51241,3759.2,37403,12912
4,79,98.9,0,53518,3759.2,37420,12923
4,79,98.9,0,55246,3759.2,37439,12933
4,79,98.9,8,56419,3759.2,37457,12941
4,79,98.9,0,57051,3759.2,37479,12956
4,79,98.9,0,57179,3759.2,37503,12972
4,79,98.9,0,56850,3759.2,37528,12986
4,79,98.9,0,56138,3759.2,37555,13004
4,79,98.9,0,55111,3759.2,37582,13021
4,79,98.9,0,53844,3759.2,37610,13036
4,79,98.9,0,52397,3759.2,37632,13053
4,79,98.9,0,50829,3759.2,37655,13067
4,79,98.9,0,49215,3759.2,37675,13080
4,79,98.9,0,47600,3759.2,37690,13091
4,79,98.9,0,46014,3759.2,37698,13097
4,79,98.9,0,44486,3759.2,37707,13100
4,79,98.9,0,43047,3759.2,37711,13101
4,79,98.9,0,41718,3759.2,37715,13108
4,79,98.9,0,40516,3759.2,37715,13105
4,79,98.9,0,39439,3759.2,37718,13107
4,79,98.9,0,38520,3759.2,37723,13109
4,79,98.9,0,37728,3759.2,37725,13112
4,79,98.9,0,37064,3759.2,37731,13117
4,79,98.9,0,36527,3759.2,37740,13126
4,79,98.9,0,36097,3759.2,37757,13133
4,79,98.9,0,35765,3759.2,37771,13145
4,79,98.9,0,35508,3759.2,37790,13156
4,79,98.9,0,35297,3759.2,37806,13165
4,79,98.9,0,35116,3759.2,37831,13181
4,79,98.9,0,34927,3759.2,37855,13197
4,79,98.9,0,34714,3759.2,37881,13212
4,79,98.9,0,34469,3759.2,37906,13227
4,79,98.9,0,34168,3759.2,37929,13242
4,79,98.9,0,33797,3759.2,37958,13262
4,79,98.9,0,33338,3759.2,37986,13280
4,79,98.9,0,32790,3759.2,38015,13298
4,79,98.9,0,32147,3759.2,38039,13314
4,79,98.9,0,31423,3759.2,38062,13329
4,79,98.9,0,30609,3759.2,38086,13345
4,79,98.9,0,29722,3759.2,38111,13360
4,79,98.9,0,28776,3759.2,38133,13378
4,79,98.9,0,27779,3759.2,38153,13391
4,79,98.9,0,26749,3759.2,38181,13405
4,79,98.9,0,25699,3759.2,38200,13421
4,79,98.9,0,24647,3759.2,38225,13433
4,79,98.9,0,23600,3759.2,38250,13452
4,79,98.9,0,22575,3759.2,38272,13467
4,79,98.9,0,21581,3759.2,38296,13483
4,79,98.9,0,20624,3759.2,38320,13498
4,79,98.9,0,19706,3759.2,38343,13509
4,79,98.9,0,18819,3759.2,38364,13524
4,79,98.9,0,17979,3759.2,38386,13543
4,79,98.9,0,17186,3759.2,38414,13563
4,79,98.9,0,16409,3759.2,38441,13582
4,79,98.9,0,15664,3759.2,38458,13589
4,79,98.9,0,14942,3759.2,38462,13594
4,79,98.9,0,14244,3759.2,38439,13579
4,79,98.9,0,13578,3759.2,38386,13545
4,79,98.9,0,12944,3759.2,38302,13492
4,79,98.9,0,12391,3759.2,38192,13421
4,79,98.9,0,11959,3759.2,38063,13338
4,79,98.9,0,11729,3759.2,37923,13247
4,79,98.9,0,11766,3759.2,37804,13167
4,79,98.9,0,12166,3759.2,37717,13111
4,79,98.9,0,13011,3759.2,37655,13068
4,79,98.9,0,14341,3759.2,37614,13041
4,79,98.9,0,16190,3759.2,37580,13020
4,79,98.9,0,18518,3759.2,37565,13008
4,79,98.9,0,21280,3759.2,37559,13003
4,79,98.9,0,24404,3759.2,37562,13004
4,79,98.9,0,27772,3759.2,37568,13010
4,79,98.9,0,31273,3759.2,37580,13018
4,79,98.9,0,34771,3759.2,37597,13029
4,79,98.9,0,38125,3759.2,37620,13043
4,79,98.9,0,41217,3759.2,37643,13059
4,79,98.9,0,43939,3759.2,37671,13078
4,79,98.9,0,46213,3759.2,37696,13092
4,79,98.9,8,47963,3759.2,37725,13113
4,79,98.9,0,49179,3759.2,37755,13131
4,79,98.9,0,49845,3759.2,37786,13150
4,79,98.9,0,49991,3759.2,37817,13172
4,79,98.9,0,49650,3759.2,37851,13195
4,79,98.9,0,48863,3759.2,37886,13216
4,79,98.9,0,47712,3759.2,37915,13236
4,79,98.9,0,46253,3759.2,37946,13257
4,79,98.9,0,44569,3759.2,37976,13275
4,79,98.9,0,42724,3759.2,37999,13290
4,79,98.9,0,40767,3759.2,38013,13298
4,79,98.9,0,38780,3759.2,38021,13306
4,79,98.9,0,36813,3759.2,38028,13310
4,79,98.9,0,34907,3759.2,38026,13310
4,79,98.9,0,33119,3759.2,38021,13304
4,79,98.9,0,31483,3759.2,38019,13306
4,79,98.9,0,30035,3759.2,38015,13303
4,79,98.9,0,28793,3759.2,38016,13302
4,79,98.9,0,27766,3759.2,38017,13305
4,79,98.9,0,26963,3759.2,38021,13308
4,79,98.9,0,26371,3759.2,38027,13311
4,79,98.9,0,25979,3759.2,38038,13317
4,79,98.9,0,25766,3759.2,38054,13329
4,79,98.9,0,25687,3759.2,38069,13340
4,79,98.9,0,25727,3759.2,38088,13353
4,79,98.9,0,25836,3759.2,38107,13365
4,79,98.9,0,25971,3759.2,38128,13380
4,79,98.9,0,26106,3759.2,38149,13394
4,79,98.9,0,26198,3759.2,38175,13411
4,79,98.9,0,26205,3759.2,38201,13428
4,79,98.9,0,26118,3759.2,38232,13444
4,79,98.9,0,25910,3759.2,38253,13460
4,79,98.9,0,25572,3759.2,38282,13478
4,79,98.9,0,25104,3759.2,38307,13495
4,79,98.9,0,24514,3759.2,38333,13509
4,79,98.9,0,23802,3759.2,38357,13527
4,79,98.9,0,22984,3759.2,38379,13538
4,79,98.9,0,22077,3759.2,38400,13552
4,79,98.9,0,21091,3759.2,38422,13571
4,79,98.9,0,20061,3759.2,38445,13586
4,79,98.9,0,18993,3759.2,38464,13598
4,79,98.9,0,17925,3759.2,38485,13610
4,79,98.9,0,16864,3759.2,38506,13627
4,79,98.9,0,15829,3759.2,38528,13639
4,79,98.9,0,14820,3759.2,38546,13652
4,79,98.9,0,13871,3759.2,38569,13668
4,79,98.9,0,12975,3759.2,38591,13681
4,79,98.9,0,12131,3759.2,38614,13701
4,79,98.9,0,11340,3759.2,38636,13712
4,79,98.9,0,10602,3759.2,38656,13727
4,79,98.9,0,9908,3759.2,38682,13743
4,79,98.9,0,9249,3759.2,38706,13759
4,79,98.9,0,8626,3759.2,38722,13768
4,79,98.9,0,8030,3759.2,38722,13768
4,79,98.9,0,7452,3759.2,38693,13755
4,79,98.9,0,6892,3759.2,38625,13711
4,79,98.9,0,6386,3759.2,38533,13652
4,79,99.0,0,5959,3759.2,38408,13573
4,79,99.0,0,5674,3759.2,38264,13479
4,79,99.0,0,5626,3759.2,38118,13382
4,79,99.0,0,5894,3759.2,37979,13294
4,79,99.0,0,6583,3759.2,37877,13226
4,79,99.0,0,7798,3759.2,37801,13177
4,79,99.0,0,9565,3759.2,37747,13140
4,79,99.0,0,11930,3759.2,37708,13115
4,79,99.0,0,14875,3759.2,37679,13096
4,79,99.0,0,18341,3759.2,37663,13084
4,79,99.0,0,22226,3759.2,37655,13078
4,79,99.0,0,26410,3759.2,37655,13076
4,79,99.0,0,30765,3759.2,37661,13078
4,79,99.0,0,35128,3759.2,37672,13086
4,79,99.0,0,39353,3759.2,37681,13095
4,79,99.0,0,43279,3759.2,37697,13104
4,79,99.0,0,46792,3759.2,37715,13113
4,79,99.0,0,49792,3759.2,37735,13124
4,79,99.0,0,52232,3759.2,37751,13138
4,79,99.0,8,54056,3759.2,37768,13146
4,79,99.0,0,55246,3759.2,37788,13163
4,79,99.0,0,55845,3759.2,37810,13176
4,79,99.0,0,55891,3759.2,37827,13189
4,79,99.0,0,55445,3759.2,37851,13203
4,79,99.0,0,54570,3759.2,37875,13218
4,79,99.0,0,53356,3759.2,37902,13240
4,79,99.0,0,51882,3759.2,37928,13250
4,79,99.0,0,50229,3759.2,37948,13265
4,79,99.0,0,48458,3759.2,37969,13279
4,79,99.0,0,46641,3759.2,37990,13289
4,79,99.0,0,44822,3759.2,38005,13299
4,79,99.0,0,43063,3759.2,38016,13308
4,79,99.0,0,41381,3759.2,38016,13311
4,79,99.0,0,39804,3759.2,38021,13316
4,79,99.0,0,38358,3759.2,38027,13321
4,79,99.0,0,37072,3759.2,38028,13318
4,79,99.0,0,35917,3759.2,38024,13321
4,79,99.0,0,34923,3759.2,38029,13320
4,79,99.0,0,34088,3759.2,38029,13319
4,79,99.0,0,33397,3759.2,38036,13325
4,79,99.0,0,32858,3759.2,38043,13329
4,79,99.0,0,32437,3759.2,38055,13338
4,79,99.0,0,32133,3759.2,38066,13343
4,79,99.0,0,31902,3759.2,38081,13354
4,79,99.0,0,31734,3759.2,38100,13364
4,79,99.0,0,31612,3759.2,38116,13377
4,79,99.0,0,31499,3759.2,38139,13392
4,79,99.0,0,31385,3759.2,38158,13405
4,79,99.0,0,31216,3759.2,38181,13420
4,79,99.0,0,30980,3759.2,38203,13433
4,79,99.0,0,30678,3759.2,38229,13450
4,79,99.0,0,30282,3759.2,38251,13460
4,79,99.0,0,29791,3759.2,38275,13478
4,79,99.0,0,29205,3759.2,38301,13495
4,79,99.0,0,28523,3759.2,38326,13514
4,79,99.0,0,27744,3759.2,38351,13530
4,79,99.0,0,26888,3759.2,38374,13543
4,79,99.0,0,25945,3759.2,38401,13559
4,79,99.0,0,24933,3759.2,38424,13575
4,79,99.0,0,23863,3759.2,38448,13589
4,79,99.0,0,22761,3759.2,38472,13606
4,79,99.0,0,21638,3759.2,38498,13622
4,79,99.0,0,20514,3759.2,38521,13637
4,79,99.0,0,19378,3759.2,38543,13653
4,79,99.0,0,18260,3759.2,38566,13666
4,79,99.0,0,17160,3759.2,38591,13682
4,79,99.0,0,16088,3759.2,38612,13698
4,79,99.0,0,15053,3759.2,38632,13712
4,79,99.0,0,14057,3759.2,38652,13725
4,79,99.0,0,13088,3759.2,38678,13741
4,79,99.0,0,12158,3759.2,38697,13754
4,79,99.0,0,11266,3759.2,38723,13771
4,79,99.0,0,10423,3759.2,38742,13784
4,79,99.0,0,9599,3759.2,38763,13795
4,79,99.0,0,8804,3749.6,38786,13809
4,79,99.0,0,8039,3749.6,38811,13828
4,79,99.0,0,7303,3749.6,38827,13840
4,79,99.0,0,6588,3749.6,38830,13842
4,79,99.0,0,5902,3749.6,38804,13826
4,79,99.0,0,5236,3749.6,38744,13785
4,79,99.0,0,4629,3749.6,38644,13724
4,79,99.0,0,4128,3749.6,38520,13644
4,79,99.0,0,3782,3749.6,38373,13543
4,79,99.0,0,3695,3749.6,38218,13443
4,79,99.2,0,29845,3749.6,38056,838467751
4,79,99.2,0,26378,3749.6,38127,13270
4,79,99.2,0,25302,3749.6,38153,13283
4,79,99.2,0,24285,3749.6,38179,13305
4,79,99.2,0,23320,3749.6,38204,13319
4,79,99.2,0,22401,3749.6,38226,13334
4,79,99.2,0,21541,3749.6,38252,13354
4,79,99.2,0,20728,3749.6,38279,13368
4,79,99.2,0,19961,3749.6,38304,13382
4,79,99.2,0,19228,3749.6,38330,13402
4,79,99.2,0,18528,3749.6,38356,13420
4,79,99.2,0,17855,3749.6,38380,13435
4,79,99.2,0,17208,3749.6,38411,13451
4,79,99.2,0,16568,3749.6,38436,13471
4,79,99.2,0,15942,3749.6,38458,13484
4,79,99.2,0,15322,3749.6,38472,13494
4,79,99.2,0,14701,3749.6,38466,13494
4,79,99.2,0,14101,3749.6,38426,13467
4,79,99.2,0,13508,3749.6,38350,13422
4,79,99.2,0,12957,3749.6,38231,13345
4,78,99.2,0,12488,3749.6,38089,13253
4,78,99.2,0,12171,3749.6,37929,13150
4,78,99.2,0,12076,3749.6,37760,13041
4,78,99.2,0,12292,3749.6,37591,12932
4,78,99.2,0,12910,3749.6,37442,12839
4,78,99.2,0,14006,3749.6,37336,12769
4,78,99.2,0,15643,3749.6,37255,12719
4,78,99.2,0,17843,3749.6,37189,12674
4,78,99.2,0,20602,3749.6,37148,12646
4,78,99.2,0,23866,3749.6,37118,12623
4,78,99.2,0,27570,3749.6,37097,12611
4,78,99.2,0,31593,3749.6,37088,12605
4,78,99.2,0,35806,3749.6,37084,12604
4,78,99.2,0,40067,3749.6,37088,12603
4,78,99.2,0,44226,3749.6,37096,12607
4,78,99.2,0,48146,3749.6,37113,12615
4,78,99.2,0,51703,3749.6,37126,12624
4,78,99.2,0,54803,3749.6,37142,12634
4,78,99.2,0,57374,3749.6,37162,12646
4,78,99.2,0,59372,3749.6,37177,12655
4,78,99.2,8,60784,3749.6,37193,12666
4,78,99.2,0,61624,3749.6,37208,12676
4,78,99.2,0,61920,3749.6,37224,12685
4,78,99.2,0,61738,3749.6,37251,12704
4,78,99.2,0,61134,3749.6,37271,12719
4,78,99.2,0,60194,3749.6,37299,12734
4,78,99.2,0,58980,3749.6,37323,12750
4,78,99.2,0,57571,3749.6,37348,12766
4,78,99.2,0,56030,3749.6,37369,12778
4,78,99.2,0,54433,3749.6,37381,12786
4,78,99.2,0,52815,3749.6,37387,12791
4,78,99.2,0,51233,3749.6,37390,12796
4,78,99.2,0,49721,3749.6,37383,12794
4,78,99.2,0,48307,3749.6,37382,12790
4,78,99.2,0,47012,3749.6,37374,12783
4,78,99.2,0,45858,3749.6,37365,12780
4,78,99.2,0,44858,3749.6,37363,12777
4,78,99.2,0,44026,3749.6,37358,12777
4,78,99.2,0,43357,3749.6,37357,12778
4,78,99.2,0,42837,3749.6,37360,12776
4,78,99.2,0,42465,3749.6,37365,12781
4,78,99.2,0,42220,3749.6,37377,12790
4,78,99.2,0,42076,3749.6,37394,12798
4,78,99.2,0,42010,3749.6,37409,12807
4,78,99.2,0,41994,3749.6,37430,12820
4,78,99.2,0,41999,3749.6,37455,12836
4,78,99.2,0,41997,3749.6,37480,12853
4,78,99.2,0,41959,3749.6,37511,12871
4,78,99.2,0,41857,3749.6,37540,12888
4,78,99.2,0,41667,3749.6,37572,12907
4,78,99.2,0,41368,3749.6,37601,12929
4,78,99.2,0,40953,3749.6,37632,12948
4,78,99.2,0,40421,3749.6,37665,12968
4,78,99.2,0,39771,3749.6,37700,12988
4,78,99.2,0,38982,3749.6,37734,13012
4,78,99.2,0,38088,3749.6,37766,13029
4,78,99.2,0,37082,3749.6,37799,13053
4,78,99.2,0,14006,3749.6,37336,12769
4,78,99.2,0,15643,3749.6,37255,12719
4,78,99.2,0,17843,3749.6,37189,12674
4,78,99.2,0,20602,3749.6,37148,12646
4,78,99.2,0,23866,3749.6,37118,12623
4,78,99.2,0,27570,3749.6,37097,12611
4,78,99.2,0,31593,3749.6,37088,12605
4,78,99.2,0,35806,3749.6,37084,12604
4,78,99.2,0,40067,3749.6,37088,12603
4,78,99.2,0,44226,3749.6,37096,12607
4,78,99.2,0,48146,3749.6,37113,12615
4,78,99.2,0,51703,3749.6,37126,12624
4,78,99.2,0,54803,3749.6,37142,12634
4,78,99.2,0,57374,3749.6,37162,12646
4,78,99.2,0,59372,3749.6,37177,12655
4,78,99.2,8,60784,3749.6,37193,12666
4,78,99.2,0,61624,3749.6,37208,12676
4,78,99.2,0,61920,3749.6,37224,12685
4,78,99.2,0,61738,3749.6,37251,12704
4,78,99.2,0,61134,3749.6,37271,12719
4,78,99.2,0,60194,3749.6,37299,12734
4,78,99.2,0,58980,3749.6,37323,12750
4,78,99.2,0,57571,3749.6,37348,12766
4,78,99.2,0,56030,3749.6,37369,12778
4,78,99.2,0,54433,3749.6,37381,12786
4,78,99.2,0,52815,3749.6,37387,12791
4,78,99.2,0,51233,3749.6,37390,12796
4,78,99.2,0,49721,3749.6,37383,12794
4,78,99.2,0,48307,3749.6,37382,12790
4,78,99.2,0,47012,3749.6,37374,12783
4,78,99.2,0,45858,3749.6,37365,12780
4,78,99.2,0,44858,3749.6,37363,12777
4,78,99.2,0,44026,3749.6,37358,12777
4,78,99.2,0,43357,3749.6,37357,12778
4,78,99.2,0,42837,3749.6,37360,12776
4,78,99.2,0,42465,3749.6,37365,12781
4,78,99.2,0,42220,3749.6,37377,12790
4,78,99.2,0,42076,3749.6,37394,12798
4,78,99.2,0,42010,3749.6,37409,12807
4,78,99.2,0,41994,3749.6,37430,12820
4,78,99.2,0,41999,3749.6,37455,12836
4,78,99.2,0,41997,3749.6,37480,12853
4,78,99.2,0,41959,3749.6,37511,12871
4,78,99.2,0,41857,3749.6,37540,12888
4,78,99.2,0,41667,3749.6,37572,12907
4,78,99.2,0,41368,3749.6,37601,12929
4,78,99.2,0,40953,3749.6,37632,12948
4,78,99.2,0,40421,3749.6,37665,12968
4,78,99.2,0,39771,3749.6,37700,12988
4,78,99.2,0,38982,3749.6,37734,13012
4,78,99.2,0,38088,3749.6,37766,13029
4,78,99.2,0,37082,3749.6,37799,13053
4,78,99.2,0,35985,3749.6,37829,13072
4,78,99.2,0,34819,3749.6,37862,13093
4,78,99.2,0,33597,3749.6,37888,13110
4,78,99.2,0,32318,3749.6,37918,13131
4,78,99.2,0,31028,3749.6,37944,13149
4,78,99.2,0,29725,3749.6,37977,13166
4,78,99.2,0,28418,3749.6,38003,13185
4,78,99.2,0,27137,3749.6,38031,13205
4,78,99.2,0,25890,3749.6,38059,13220
4,78,99.2,0,24676,3749.6,38090,13242
4,78,99.2,0,23504,3749.6,38113,13256
4,78,99.2,0,22389,3749.6,38140,13275
4,78,99.2,0,21317,3749.6,38172,13296
4,78,99.2,0,20296,3749.6,38202,13316
4,78,99.2,0,19325,3749.6,38227,13333
4,78,99.2,0,18391,3749.6,38243,13340
4,78,99.2,0,17500,3749.6,38237,13340
4,78,99.2,0,16647,3749.6,38204,13321
4,78,99.2,0,15837,3749.6,38134,13279
4,78,99.2,0,15095,3749.6,38027,13213
4,78,99.2,0,14458,3749.6,37900,13135
4,78,99.2,0,13978,3749.6,37757,13041
4,78,99.2,0,13732,3749.6,37607,12944
4,78,99.2,0,13801,3749.6,37456,12846
4,78,99.2,0,14277,3749.6,37323,12761
4,78,99.2,0,15228,3749.6,37226,12700
4,78,99.2,0,16715,3749.6,37153,12651
4,78,99.2,0,18770,3749.6,37097,12617
4,78,99.2,0,21372,3749.6,37059,12591
4,78,99.2,0,24485,3749.6,37029,12573
4,78,99.2,0,28031,3749.6,37017,12564
4,78,99.2,0,31900,3749.6,37017,12562
4,78,99.2,0,35951,3749.6,37021,12567
4,78,99.2,0,40060,3749.6,37032,12572
4,78,99.2,0,44057,3749.6,37052,12583
4,78,99.2,0,47824,3749.6,37073,12596
4,78,99.2,0,51226,3749.6,37096,12609
4,78,99.2,0,54154,3749.6,37120,12628
4,78,99.2,0,56546,3749.6,37150,12645
4,78,99.2,8,58346,3749.6,37182,12663
4,78,99.2,0,59539,3749.6,37217,12685
4,78,99.2,0,60133,3749.6,37253,12706
4,78,99.2,0,60160,3749.6,37295,12733
4,78,99.2,0,59674,3749.6,37332,12758
4,78,99.2,0,58737,3749.6,37369,12783
4,78,99.2,0,57409,3749.6,37403,12802
4,78,99.2,0,55777,3749.6,37429,12822
4,78,99.2,0,53908,3749.6,37454,12839
4,78,99.2,0,51893,3749.6,37470,12846
4,78,99.2,0,49786,3749.6,37477,12851
4,78,99.2,0,47654,3749.6,37477,12852
4,78,99.2,0,45575,3749.6,37479,12854
4,78,99.2,0,43592,3749.6,37474,12852
4,78,99.2,0,41737,3749.6,37468,12848
4,78,99.2,0,40079,3749.6,37463,12845
4,78,99.2,0,38633,3749.6,37459,12844
4,78,99.2,0,37409,3749.6,37456,12841
4,78,99.2,0,36437,3749.6,37458,12844
4,78,99.2,0,35696,3749.6,37467,12847
4,78,99.2,0,35171,3749.6,37479,12858
4,78,99.2,0,34847,3749.6,37491,12863
4,78,99.2,0,34686,3749.6,37512,12873
4,78,99.2,0,34650,3749.6,37532,12888
4,78,99.2,0,34701,3749.6,37561,12904
4,78,99.2,0,34799,3749.6,37591,12923
4,78,99.2,0,34898,3749.6,37620,12941
4,78,99.2,0,34949,3749.6,37651,12959
4,78,99.2,0,34929,3749.6,37681,12979
4,78,99.2,0,34806,3749.6,37716,12998
4,78,99.2,0,34548,3749.6,37748,13022
4,78,99.2,0,34145,3749.6,37785,13044
4,78,99.2,0,33589,3749.6,37821,13070
4,78,99.2,0,32879,3749.6,37852,13087
4,78,99.2,0,32014,3749.6,37886,13108
4,78,99.2,0,31001,3749.6,37921,13134
4,78,99.2,0,29872,3749.6,37956,13152
4,78,99.2,0,28619,3749.6,37990,13175
4,78,99.2,0,27289,3749.6,38023,13196
4,78,99.2,0,25899,3749.6,38053,13212
4,78,99.2,0,24465,3749.6,38088,13235
4,78,99.2,0,23028,3749.6,38117,13256
4,78,99.2,0,21588,3749.6,38147,13277
4,78,99.2,0,20170,3749.6,38172,13292
4,78,99.2,0,18790,3749.6,38206,13313
4,78,99.2,0,17450,3749.6,38232,13332
4,78,99.2,0,16166,3749.6,38266,13351
4,78,99.2,0,14938,3749.6,38289,13367
4,78,99.2,0,13774,3749.6,38316,13383
4,78,99.2,0,12676,3749.6,38340,13400
4,78,99.2,0,11635,3749.6,38369,13421
4,78,99.2,0,10660,3749.6,38389,13437
4,78,99.2,0,9734,3749.6,38416,13450
4,78,99.2,0,8859,3749.6,38441,13469
4,78,99.2,0,8024,3749.6,38469,13483
4,78,99.2,0,7232,3749.6,38500,13503
4,78,99.2,0,6481,3749.6,38527,13520
4,78,99.2,0,5764,3749.6,38549,13535
4,78,99.2,0,5072,3749.6,38558,13544
4,78,99.2,0,4398,3749.6,38550,13537
4,78,99.2,0,3758,3749.6,38493,13504
4,78,99.2,0,3276,3749.6,38399,13444
4,78,99.2,0,3276,3749.6,38258,13353
4,78,99.2,0,3276,3749.6,38096,13254
4,78,99.2,0,3276,3749.6,37916,13138
4,78,99.2,0,3441,3749.6,37732,13022
4,78,99.2,0,3966,3749.6,37552,12905
4,78,99.2,0,5009,3749.6,37405,12814
4,78,99.2,0,6638,3749.6,37288,12739
4,78,99.2,0,8917,3749.6,37204,12685
4,78,99.2,0,11885,3749.6,37139,12642
4,78,99.2,0,15514,3749.6,37089,12608
4,78,99.2,0,19735,3749.6,37056,12588
4,78,99.2,0,24443,3749.6,37039,12572
4,78,99.2,0,29503,3749.6,37023,12563
4,78,99.2,0,34747,3749.6,37020,12559
4,78,99.2,0,40016,3749.6,37018,12560
4,78,99.2,0,45130,3749.6,37026,12563
4,78,99.2,0,49926,3749.6,37040,12571
4,78,99.2,0,54255,3749.6,37052,12579
4,78,99.2,0,58009,3749.6,37064,12584
4,78,99.2,0,61107,3749.6,37081,12594
4,78,99.2,0,62258,3749.6,37097,12607
4,78,99.2,8,62258,3749.6,37111,12613
4,78,99.2,0,62258,3749.6,37127,12624
4,78,99.2,0,62258,3749.6,37146,12634
4,78,99.2,0,62092,3749.6,37167,12650
4,78,99.2,0,61511,3749.6,37193,12667
4,78,99.2,0,60584,3749.6,37220,12686
4,78,99.2,0,59397,3749.6,37245,12700
4,78,99.2,0,58010,3749.6,37273,12715
4,78,99.2,0,56493,3749.6,37296,12730
4,78,99.2,0,54901,3749.6,37320,12748
4,78,99.2,0,53295,3749.6,37334,12756
4,78,99.2,0,51711,3749.6,37344,12763
4,78,99.2,0,50196,3749.6,37351,12767
4,78,99.2,0,48770,3749.6,37355,12773
4,78,99.2,0,47434,3749.6,37357,12773
4,78,99.2,0,46222,3749.6,37357,12772
4,78,99.2,0,45141,3749.6,37356,12772
4,78,99.2,0,44184,3749.6,37359,12777
4,78,99.2,0,43359,3749.6,37362,12775
4,78,99.2,0,42657,3749.6,37367,12778
4,78,99.2,0,42074,3749.6,37378,12787
4,77,99.2,0,41602,3749.6,37391,12798
4,77,99.2,0,41220,3749.6,37408,12807
4,77,99.2,0,40908,3749.6,37433,12818
4,77,99.2,0,40652,3749.6,37454,12833
4,77,99.2,0,40416,3749.6,37484,12851
4,77,99.2,0,40187,3749.6,37513,12869
4,77,99.2,0,39943,3749.6,37547,12890
4,77,99.2,0,39648,3749.6,37579,12910
4,77,99.2,0,39282,3749.6,37615,12932
4,77,99.2,0,38843,3749.6,37652,12953
4,77,99.2,0,38311,3749.6,37688,12979
4,77,99.2,0,37669,3749.6,37723,13003
4,77,99.2,0,36933,3749.6,37759,13021
4,77,99.2,0,36087,3749.6,37798,13046
4,77,99.2,0,35138,3749.6,37828,13067
4,77,99.2,0,34077,3749.6,37860,13084
4,77,99.2,0,32947,3749.6,37894,13104
4,77,99.2,0,31741,3749.6,37928,13129
4,77,99.2,0,30479,3749.6,37960,13151
4,77,99.2,0,29177,3749.6,37994,13172
4,77,99.2,0,27857,3749.6,38028,13193
4,77,99.2,0,26532,3749.6,38060,13214
4,77,99.2,0,25218,3749.6,38092,13236
4,77,99.2,0,23924,3749.6,38121,13253
4,77,99.2,0,22662,3749.6,38151,13275
4,77,99.2,0,21428,3749.6,38184,13297
4,77,99.2,0,20229,3749.6,38209,13313
4,77,99.2,0,19079,3749.6,38238,13330
4,77,99.2,0,17971,3749.6,38265,13347
4,77,99.2,0,16922,3749.6,38297,13366
4,77,99.2,0,15923,3749.6,38318,13381
4,77,99.2,0,14960,3749.6,38348,13403
4,77,99.2,0,14041,3749.6,38369,13417
4,77,99.2,0,13159,3749.6,38396,13434
4,77,99.2,0,12328,3749.6,38420,13450
4,77,99.2,0,11527,3749.6,38446,13466
4,77,99.2,0,10764,3749.6,38479,13486
4,77,99.2,0,10030,3749.6,38506,13506
4,77,99.2,0,9326,3749.6,38533,13521
4,77,99.2,0,8644,3749.6,38547,13533
4,77,99.2,0,7986,3749.6,38537,13527
4,77,99.2,0,7350,3749.6,38488,13498
4,77,99.2,0,6752,3749.6,38394,13439
4,77,99.2,0,6222,3749.6,38263,13356
4,77,99.2,0,5803,3749.6,38094,13253
4,77,99.2,0,5569,3749.6,37916,13140
4,77,99.2,0,5602,3749.6,37729,13020
4,77,99.2,0,6012,3749.6,37550,12903
4,77,99.2,0,6887,3749.6,37388,12797
4,77,99.2,0,8331,3749.6,37271,12725
4,77,99.2,0,10402,3749.6,37182,12665
4,77,99.2,0,13132,3749.6,37111,12627
4,77,99.2,0,16500,3749.6,37065,12591
4,77,99.2,0,20449,3749.6,37033,12571
4,77,99.2,0,24881,3749.6,37010,12556
4,77,99.2,0,29674,3749.6,36999,12551
4,77,99.2,0,34663,3749.6,36995,12548
4,77,99.2,0,39684,3749.6,36997,12547
4,77,99.2,0,44575,3749.6,37008,12555
4,77,99.2,0,49166,3749.6,37023,12562
4,77,99.2,0,53309,3749.6,37038,12572
4,77,99.2,0,56912,3749.6,37056,12581
4,77,99.2,0,59881,3749.6,37072,12593
4,77,99.2,0,62179,3749.6,37092,12608
4,77,99.2,8,62258,3749.6,37114,12619
4,77,99.2,0,62258,3749.6,37137,12632
4,77,99.2,0,62258,3749.6,37162,12646
4,77,99.2,0,62045,3749.6,37184,12658
4,77,99.2,0,61389,3749.6,37212,12677
4,77,99.2,0,60370,3749.6,37241,12697
4,77,99.2,0,59072,3749.6,37270,12710
4,77,99.2,0,57570,3749.6,37295,12729
4,77,99.2,0,55940,3749.6,37322,12742
4,77,99.2,0,54235,3749.6,37337,12751
4,77,99.2,0,52523,3749.6,37352,12763
4,77,99.2,0,50853,3749.6,37364,12771
4,77,99.2,0,49258,3749.6,37369,12778
4,77,99.2,0,47765,3749.6,37374,12781
4,77,99.2,0,46387,3749.6,37374,12779
4,77,99.2,0,45153,3749.6,37374,12781
4,77,99.2,0,44062,3749.6,37378,12785
4,77,99.2,0,43114,3749.6,37379,12784
4,77,99.2,0,42304,3749.6,37387,12790
4,77,99.2,0,41637,3749.6,37394,12794
4,77,99.2,0,41086,3749.6,37407,12805
4,77,99.2,0,40646,3749.6,37422,12810
4,77,99.2,0,40295,3749.6,37436,12821
4,77,99.2,0,40006,3749.6,37460,12833
4,77,99.2,0,39765,3749.6,37486,12847
4,77,99.2,0,39545,3749.6,37516,12869
4,77,99.2,0,39317,3749.6,37541,12884
4,77,99.2,0,39060,3749.6,37574,12906
4,77,99.2,0,38761,3749.6,37608,12926
4,77,99.2,0,38390,3749.6,37641,12947
4,77,99.2,0,37933,3749.6,37673,12966
4,77,99.2,0,37383,3749.6,37707,12985
4,77,99.2,0,36733,3749.6,37742,13008
4,77,99.2,0,35980,3749.6,37776,13030
4,77,99.2,0,35133,3749.6,37809,13052
4,77,99.2,0,34191,3749.6,37841,13072
4,76,99.2,0,33174,3749.6,37876,13094
4,76,99.2,0,32081,3749.6,37909,13117
4,76,99.2,0,30934,3749.6,37942,13135
4,76,99.2,0,29732,3749.6,37976,13154
4,76,99.2,0,28506,3749.6,38006,13179
4,76,99.2,0,27253,3749.6,38042,13204
4,76,99.2,0,25998,3749.6,38070,13221
4,76,99.2,0,24746,3749.6,38104,13242
4,76,99.2,0,23513,3749.6,38133,13260
4,76,99.2,0,22306,3749.6,38160,13276
4,76,99.2,0,21127,3749.6,38191,13297
4,76,99.2,0,19981,3749.6,38215,13311
4,76,99.2,0,18878,3749.6,38245,13331
4,76,99.2,0,17824,3749.6,38269,13349
4,76,99.2,0,16813,3749.6,38296,13369
4,76,99.2,0,15845,3749.6,38325,13387
4,76,99.2,0,14928,3749.6,38350,13405
4,76,99.2,0,14054,3749.6,38375,13420
4,76,99.2,0,13209,3749.6,38399,13437
4,76,99.2,0,12400,3749.6,38428,13458
4,76,99.2,0,11636,3749.6,38451,13473
4,76,99.2,0,10893,3749.6,38464,13481
4,76,99.2,0,10181,3749.6,38448,13475
4,76,99.2,0,9497,3749.6,38396,13443
4,76,99.2,0,8851,3749.6,38309,13389
4,76,99.2,0,8286,3749.6,38177,13308
4,76,99.2,0,7839,3749.6,38024,13209
4,76,99.2,0,7575,3749.6,37851,13103
4,76,99.2,0,7575,3749.6,37686,12999
4,76,99.2,0,7942,3749.6,37518,12895
4,76,99.2,0,8762,3749.6,37364,12796
4,76,99.2,0,10117,3749.6,37245,12718
4,76,99.2,0,12065,3749.6,37147,12657
4,76,99.2,0,14615,3749.6,37074,12615
4,76,99.2,0,17776,3749.6,37018,12575
4,76,99.2,0,21485,3749.6,36967,12546
4,76,99.2,0,25650,3749.6,36929,12526
4,76,99.2,0,30167,3749.6,36906,12514
4,76,99.2,0,34899,3749.6,36898,12504
4,76,99.2,0,39684,3749.6,36898,12503
4,76,99.2,0,44369,3749.6,36901,12506
4,76,99.2,0,48817,3749.6,36915,12514
4,76,99.2,0,52888,3749.6,36933,12522
4,76,99.2,0,56475,3749.6,36952,12532
4,76,99.2,0,59486,3749.6,36970,12544
4,76,99.2,0,61884,3749.6,36993,12557
4,76,99.2,8,62258,3749.6,37018,12574
4,76,99.2,0,62258,3749.6,37050,12592
4,76,99.2,0,62258,3749.6,37081,12608
4,76,99.2,0,62231,3749.6,37117,12632
4,76,99.2,0,61746,3749.6,37148,12647
4,76,99.2,0,60886,3749.6,37179,12670
4,76,99.2,0,59717,3749.6,37209,12687
4,76,99.2,0,58307,3749.6,37234,12701
4,76,99.2,0,56724,3749.6,37264,12718
4,76,99.2,0,55034,3749.6,37321,12743
4,76,99.2,0,53284,3749.6,37415,12781
4,76,99.2,0,51528,3749.6,37517,12822
4,76,99.2,0,49791,3749.6,37607,12865
4,76,99.2,0,48094,3749.6,37704,12907
4,76,99.2,0,46436,3749.6,37790,12944
4,76,99.2,0,44810,3749.6,37860,12976
4,76,99.2,0,43195,3749.6,37906,13006
4,76,99.2,0,41590,3749.6,37934,13026
4,76,99.2,0,39975,3749.6,37957,13040
4,76,99.2,0,38355,3749.6,37976,13055
4,76,99.2,0,36718,3749.6,38006,13074
4,76,99.2,0,35081,3749.6,38038,13093
4,76,99.2,0,33446,3749.6,38070,13114
4,76,99.2,0,31839,3749.6,38103,13138
4,76,99.2,0,30267,3749.6,38129,13157
4,76,99.2,0,28752,3749.6,38153,13175
4,76,99.2,0,27295,3749.6,38190,13200
4,76,99.2,0,25902,3749.6,38239,13230
4,76,99.2,0,24582,3749.6,38293,13258
4,76,99.2,0,23336,3749.6,38356,13295
4,76,99.2,0,22142,3749.6,38416,13330
4,76,99.2,0,21009,3749.6,38473,13362
4,76,99.2,0,19902,3749.6,38520,13390
4,76,99.2,0,18808,3749.6,38560,13416
4,76,99.2,0,17712,3749.6,38602,13442
4,76,99.2,0,16595,3749.6,38638,13464
4,76,99.2,0,15449,3749.6,38670,13487
4,76,99.2,0,14281,3749.6,38703,13509
4,76,99.2,0,13085,3749.6,38734,13526
4,76,99.2,0,11875,3749.6,38754,13537
4,76,99.2,0,10673,3749.6,38780,13558
4,76,99.2,0,9478,3749.6,38797,13570
4,76,99.2,0,8305,3749.6,38811,13583
4,76,99.2,0,7190,3749.6,38821,13592
4,76,99.2,0,6139,3749.6,38830,13598
4,76,99.2,0,5166,3749.6,38843,13610
4,76,99.2,0,4286,3749.6,38859,13620
4,76,99.2,0,3513,3749.6,38869,13624
4,76,99.2,0,3276,3749.6,38862,13626
4,76,99.2,0,3276,3749.6,38840,13618
4,76,99.2,0,3276,3749.6,38813,13609
4,76,99.2,0,3276,3749.6,38783,13596
4,76,99.2,0,3276,3749.6,38751,13587
4,76,99.2,0,3276,3749.6,38714,13575
4,76,99.2,0,3355,3749.6,38679,13565
4,76,99.2,0,3565,3749.6,38645,13550
4,76,99.2,0,3893,3749.6,38612,13534
4,76,99.2,0,4353,3749.6,38566,13508
4,76,99.2,0,4929,3749.6,38503,13468
4,76,99.2,0,5630,3749.6,38396,13396
4,76,99.2,0,6461,3749.6,38259,13308
4,76,99.2,0,7429,3749.6,38092,13199
4,76,99.2,0,8581,3749.6,37907,13084
4,76,99.2,0,9956,3749.6,37724,12965
4,76,99.2,0,11620,3749.6,37541,12851
4,76,99.2,0,13626,3749.6,37369,12742
4,76,99.2,0,16029,3749.6,37205,12641
4,76,99.2,0,18863,3749.6,37087,12572
4,76,99.2,0,22151,3749.6,37009,12522
4,76,99.2,0,25876,3749.6,36950,12484
4,76,99.2,0,30003,3749.6,36917,12461
4,76,99.2,0,34451,3749.6,36895,12448
4,76,99.2,0,39114,3749.6,36886,12440
4,76,99.2,0,43863,3749.6,36884,12433
4,76,99.2,0,48552,3749.6,36887,12434
4,76,99.2,0,53037,3749.6,36903,12440
4,76,99.2,0,57193,3749.6,36929,12452
4,76,99.2,0,60910,3749.6,36965,12468
4,76,99.2,0,62258,3749.6,37008,12493
4,76,99.2,0,62258,3749.6,37056,12515
4,76,99.2,0,62258,3749.6,37110,12540
4,76,99.2,8,62258,3749.6,37174,12572
4,76,99.2,0,62258,3749.6,37242,12607
4,76,99.2,0,62170,3749.6,37324,12646
4,76,99.2,0,61781,3749.6,37420,12693
4,76,99.2,0,60995,3749.6,37534,12746
4,76,99.2,0,59862,3749.6,37663,12810
4,76,99.2,0,58431,3749.6,37800,12881
4,76,99.2,0,56742,3749.6,37940,12951
4,76,99.2,0,54836,3749.6,38068,13024
4,76,99.2,0,52745,3749.6,38180,13081
4,76,99.2,0,50492,3749.6,38276,13136
4,76,99.2,0,48114,3749.6,38357,13186
4,76,99.2,0,45629,3749.6,38413,13224
4,76,99.2,0,43067,3749.6,38464,13259
4,76,99.2,0,40459,3749.6,38498,13287
4,76,99.2,0,37844,3749.6,38541,13315
4,76,99.2,0,35252,3749.6,38587,13343
4,76,99.2,0,32725,3749.6,38639,13374
4,76,99.2,0,30283,3749.6,38683,13405
4,76,99.2,0,27970,3749.6,38724,13432
4,76,99.2,0,25803,3749.6,38765,13461
4,76,99.2,0,23799,3749.6,38807,13488
4,76,99.2,0,21972,3749.6,38852,13515
4,76,99.2,0,20321,3749.6,38874,13530
4,76,99.2,0,18843,3749.6,38896,13546
4,76,99.2,0,17528,3749.6,38927,13561
4,76,99.2,0,16372,3749.6,38988,13585
4,76,99.2,0,15358,3749.6,39039,13601
4,76,99.2,0,14471,3749.6,39071,13606
4,76,99.2,0,13701,3749.6,39081,13608
4,76,99.2,0,13033,3749.6,39064,13599
4,76,99.2,0,12465,3749.6,39013,13576
4,76,99.2,0,12000,3749.6,38934,13547
4,76,99.2,0,11625,3749.6,38847,13510
4,76,99.2,0,11362,3749.6,38766,13479
4,76,99.2,0,11233,3749.6,38696,13449
4,76,99.2,0,11253,3749.6,38648,13433
4,76,99.2,0,11440,3749.6,38601,13414
4,76,99.2,0,11797,3749.6,38554,13399
4,76,99.2,0,12331,3749.6,38515,13386
4,76,99.2,0,13031,3749.6,38480,13376
4,76,99.2,0,13881,3749.6,38470,13376
4,76,99.2,0,14861,3749.6,38469,13382
4,76,99.2,0,15931,3749.6,38471,13387
4,76,99.2,0,17057,3749.6,38478,13394
4,76,99.2,0,18194,3749.6,38488,13404
4,76,99.2,0,19305,3749.6,38498,13411
4,76,99.2,0,20353,3749.6,38509,13423
4,76,99.2,0,21295,3749.6,38518,13432
4,76,99.2,0,22114,3749.6,38531,13440
4,76,99.2,0,22777,3749.6,38550,13455
4,76,99.2,0,23290,3749.6,38564,13467
4,76,99.2,0,23630,3749.6,38580,13478
4,76,99.2,0,23808,3749.6,38596,13490
4,76,99.2,0,23833,3749.6,38612,13503
4,76,99.2,0,23717,3749.6,38631,13518
4,76,99.2,0,23476,3749.6,38650,13531
4,76,99.2,0,23135,3749.6,38667,13543
4,76,99.2,0,22717,3749.6,38664,13542
4,76,99.2,0,22238,3749.6,38628,13524
4,76,99.2,0,21731,3749.6,38545,13478
4,76,99.2,0,21222,3749.6,38418,13401
4,76,99.2,0,20763,3749.6,38243,13299
4,76,99.2,0,20402,3749.6,38037,13180
4,76,99.2,0,20222,3749.6,37817,13049
4,76,99.2,0,20307,3749.6,37605,12926
4,76,99.2,0,20741,3749.6,37399,12797
4,76,99.2,0,21606,3749.6,37218,12687
4,76,99.2,0,22961,3749.6,37079,12600
4,76,99.2,0,24851,3749.6,36995,12548
4,76,99.2,0,27291,3749.6,36934,12507
4,76,99.2,0,30244,3749.6,36898,12480
4,76,99.2,0,33665,3749.6,36872,12459
4,76,99.2,0,37452,3749.6,36860,12452
4,76,99.2,0,41472,3749.6,36856,12448
4,76,99.2,0,45586,3749.6,36863,12447
4,76,99.2,0,49648,3749.6,36872,12452
4,76,99.2,0,53521,3749.6,36896,12461
4,76,99.2,0,57079,3749.6,36912,12469
4,76,99.2,0,60212,3749.6,36935,12480
4,76,99.2,0,62258,3749.6,36958,12490
4,76,99.2,0,62258,3749.6,36986,12506
4,76,99.2,0,62258,3749.6,37012,12519
4,76,99.2,8,62258,3749.6,37035,12529
4,76,99.2,0,62258,3749.6,37061,12546
4,76,99.2,0,62149,3749.6,37082,12560
4,76,99.2,0,61695,3749.6,37107,12577
4,76,99.2,0,60935,3749.6,37138,12595
4,76,99.2,0,59935,3749.6,37170,12617
4,76,99.2,0,58752,3749.6,37196,12630
4,76,99.2,0,57447,3749.6,37227,12649
4,76,99.2,0,56068,3749.6,37249,12662
4,76,99.2,0,54671,3749.6,37271,12675
4,76,99.2,0,53294,3749.6,37286,12684
4,76,99.2,0,51964,3749.6,37301,12696
4,76,99.2,0,50705,3749.6,37307,12700
4,76,99.2,0,49531,3749.6,37313,12704
4,76,99.2,0,48461,3749.6,37321,12710
4,76,99.2,0,47495,3749.6,37321,12709
4,76,99.2,0,46642,3749.6,37322,12712
4,76,99.2,0,45893,3749.6,37323,12713
4,76,99.2,0,45243,3749.6,37330,12717
4,76,99.2,0,44689,3749.6,37339,12725
4,76,99.2,0,44224,3749.6,37348,12732
4,76,99.2,0,43825,3749.6,37365,12739
4,76,99.2,0,43489,3749.6,37379,12749
4,76,99.2,0,43190,3749.6,37401,12762
4,76,99.2,0,42929,3749.6,37422,12774
4,76,99.2,0,42677,3749.6,37452,12792
4,76,99.2,0,42424,3749.6,37476,12809
4,76,99.2,0,42152,3749.6,37503,12824
4,76,99.2,0,41855,3749.6,37535,12844
4,76,99.2,0,41524,3749.6,37561,12859
4,76,99.2,0,41143,3749.6,37594,12881
4,76,99.2,0,40703,3749.6,37626,12903
4,76,99.2,0,40208,3749.6,37657,12919
4,76,99.2,0,39653,3749.6,37687,12939
4,76,99.2,0,39049,3749.6,37718,12962
4,76,99.2,0,38388,3749.6,37749,12981
4,76,99.2,0,37672,3749.6,37783,12999
4,76,99.2,0,36915,3749.6,37816,13020
4,76,99.2,0,36116,3749.6,37850,13040
4,76,99.2,0,35294,3749.6,37885,13062
4,76,99.2,0,34455,3749.6,37922,13084
4,76,99.2,0,33603,3749.6,37960,13105
4,76,99.2,0,32747,3749.6,38000,13128
4,76,99.2,0,31888,3749.6,38046,13156
4,76,99.2,0,31031,3749.6,38090,13178
4,76,99.2,0,30176,3749.6,38135,13203
4,76,99.2,0,29333,3749.6,38172,13231
4,76,99.2,0,28492,3749.6,38205,13251
4,76,99.2,0,27659,3749.6,38232,13272
4,76,99.2,0,26823,3749.6,38265,13291
4,76,99.2,0,26000,3749.6,38300,13312
4,76,99.2,0,25175,3749.6,38339,13336
4,76,99.2,0,24358,3749.6,38383,13360
4,76,99.2,0,23554,3749.6,38427,13386
4,76,99.2,0,22753,3749.6,38465,13406
4,76,99.2,0,21962,3749.6,38496,13429
4,76,99.2,0,21174,3749.6,38493,13428
4,76,99.2,0,20410,3749.6,38460,13411
4,76,99.2,0,19670,3749.6,38376,13357
4,76,99.2,0,18965,3749.6,38254,13284
4,76,99.2,0,18340,3749.6,38101,13185
4,76,99.2,0,17837,3749.6,37937,13085
4,76,99.2,0,17522,3749.6,37771,12983
4,76,99.2,0,17451,3749.6,37604,12882
4,76,99.2,0,17702,3749.6,37446,12780
4,76,99.2,0,18336,3749.6,37316,12700
4,76,99.2,0,19395,3749.6,37229,12647
4,76,99.2,0,20907,3749.6,37163,12606
4,76,99.2,0,22856,3749.6,37120,12576
4,76,99.2,0,25220,3749.6,37090,12556
4,76,99.2,0,27925,3749.6,37066,12542
4,76,99.2,0,30891,3749.6,37059,12539
4,76,99.2,0,34027,3749.6,37060,12539
4,76,99.2,0,37216,3749.6,37071,12544
4,76,99.2,0,40337,3749.6,37078,12547
4,76,99.2,0,43289,3749.6,37096,12559
4,76,99.2,0,45982,3749.6,37113,12571
4,76,99.2,0,48329,3749.6,37138,12586
4,76,99.2,0,50268,3749.6,37156,12600
4,76,99.2,8,51775,3749.6,37166,12609
4,76,99.2,0,52835,3749.6,37177,12623
4,76,99.2,0,53452,3749.6,37199,12634
4,76,99.2,0,53651,3749.6,37226,12651
4,76,99.2,0,53471,3749.6,37258,12675
4,76,99.2,0,52966,3749.6,37293,12696
4,76,99.2,0,52185,3749.6,37324,12715
4,76,99.2,0,51190,3749.6,37353,12732
4,76,99.2,0,50037,3749.6,37374,12742
4,76,99.2,0,48774,3749.6,37392,12755
4,76,99.2,0,47457,3749.6,37397,12761
4,75,99.1,0,46134,3749.6,37398,12761
4,75,99.1,0,44835,3749.6,37390,12761
4,75,99.1,0,43598,3749.6,37380,12760
4,75,99.1,0,42453,3749.6,37365,12748
4,75,99.1,0,41421,3749.6,37347,12738
4,75,99.1,0,40520,3749.6,37334,12732
4,75,99.1,0,39764,3749.6,37317,12722
4,75,99.1,0,39160,3749.6,37307,12719
4,75,99.1,0,38713,3749.6,37307,12716
4,75,99.1,0,38420,3749.6,37311,12715
4,75,99.1,0,38258,3749.6,37320,12722
4,75,99.1,0,38219,3749.6,37333,12730
4,75,99.1,0,38281,3749.6,37354,12741
4,75,99.1,0,38413,3749.6,37376,12754
4,75,99.1,0,38583,3749.6,37384,12762
4,75,99.1,0,38770,3749.6,37390,12771
4,75,99.1,0,38935,3749.6,37391,12776
4,75,99.1,0,39058,3749.6,37386,12779
4,75,99.1,0,39127,3749.6,37384,12782
4,75,99.1,0,39126,3749.6,37381,12783
4,75,99.1,0,39044,3749.6,37384,12786
4,75,99.1,0,38886,3749.6,37387,12792
4,75,99.1,0,38662,3749.6,37400,12798
4,75,99.1,0,38378,3749.6,37415,12811
4,75,99.1,0,38044,3749.6,37437,12824
4,75,99.1,0,37676,3749.6,37463,12838
4,75,99.1,0,37280,3749.6,37489,12854
4,75,99.1,0,36861,3749.6,37515,12869
4,75,99.1,0,36418,3749.6,37533,12878
4,75,99.1,0,35958,3749.6,37550,12893
4,75,99.1,0,35485,3749.6,37564,12903
4,75,99.1,0,34999,3749.6,37569,12910
4,75,99.1,0,34496,3749.6,37576,12918
4,75,99.1,0,33990,3749.6,37584,12926
4,75,99.1,0,33477,3749.6,37598,12937
4,75,99.1,0,32961,3749.6,37629,12954
4,75,99.1,0,32450,3749.6,37672,12978
4,75,99.1,0,31942,3749.6,37718,12998
4,75,99.1,0,31432,3749.6,37759,13011
4,75,99.1,0,30920,3749.6,37779,13017
4,75,99.1,0,30406,3749.6,37755,12993
4,75,99.1,0,29885,3749.6,37695,12950
4,75,99.1,0,29379,3749.6,37602,12882
4,75,99.1,0,28911,3749.6,37498,12809
4,75,99.1,0,28526,3749.6,37393,12738
4,75,99.1,0,28281,3749.6,37280,12668
4,75,99.1,0,28228,3749.6,37156,12599
4,75,99.1,0,28425,3749.6,37028,12538
4,75,99.1,0,28924,3749.6,36903,12484
4,75,99.1,0,29748,3749.6,36785,12435
4,75,99.1,0,30918,3749.6,36689,12396
4,75,99.1,0,32430,3749.6,36625,12367
4,75,99.1,0,34268,3749.6,36591,12356
4,75,99.1,0,36376,3749.6,36590,12356
4,75,99.1,0,38687,3749.6,36611,12366
4,75,99.1,0,41124,3749.6,36663,12396
4,75,99.1,0,43585,3749.6,36732,12436
4,75,99.1,0,45968,3749.6,36826,12483
4,75,99.1,0,48170,3749.6,36931,12537
4,75,99.1,0,50085,3749.6,37030,12597
4,75,99.1,0,51625,3749.6,37136,12662
4,75,99.1,0,52709,3749.6,37252,12739
4,75,99.1,0,53277,3749.6,37391,12823
4,75,99.1,0,53289,3749.6,37544,12911
4,75,99.1,0,52728,3749.6,37685,12996
4,75,99.1,0,51587,3749.6,37818,13072
4,75,99.1,0,49871,3749.6,37932,13134
4,75,99.1,0,47626,3749.6,38027,13188
4,75,99.1,0,44913,3749.6,38111,13232
4,75,99.1,0,41794,3749.6,38194,13272
4,75,99.1,0,38359,3749.6,38272,13307
4,75,99.1,0,34714,3749.6,38354,13339
4,75,99.1,0,30951,3749.6,38431,13367
4,75,99.1,0,27181,3749.6,38499,13390
4,75,99.1,0,23500,3749.6,38557,13410
4,75,99.1,0,20000,3749.6,38606,13427
4,75,99.1,0,16754,3749.6,38669,13450
4,75,99.1,0,13831,3749.6,38730,13478
4,75,99.1,0,11255,3749.6,38794,13500
4,75,99.1,0,9051,3749.6,38854,13523
4,75,99.1,0,7209,3749.6,38913,13548
4,75,99.1,0,5716,3749.6,38970,13570
4,75,99.1,0,4551,3749.6,39017,13590
4,75,99.1,0,3658,3749.6,39057,13606
4,75,99.1,0,3276,3749.6,39098,13627
4,75,99.1,0,3276,3749.6,39143,13647
4,75,99.1,0,3276,3749.6,39181,13670
4,75,99.1,0,3276,3749.6,39226,13697
4,75,99.1,0,3276,3749.6,39272,13719
4,75,99.1,0,3276,3749.6,39311,13744
4,75,99.1,0,3276,3749.6,39350,13767
4,75,99.1,0,3276,3749.6,39396,13793
4,75,99.1,0,3276,3749.6,39439,13823
4,75,99.1,0,3276,3749.6,39480,13845
4,75,99.1,0,3276,3749.6,39529,13873
4,75,99.1,0,3276,3749.6,39568,13899
4,75,99.1,0,3276,3749.6,39602,13922
4,75,99.1,0,3276,3749.6,39640,13946
4,75,99.1,0,3276,3749.6,39680,13969
4,75,99.1,0,3276,3749.6,39716,13992
4,75,99.1,0,3276,3749.6,39746,14014
4,75,99.1,0,3276,3749.6,39771,14033
4,75,99.1,0,3276,3749.6,39800,14052
4,75,99.1,0,3276,3749.6,39825,14068
4,75,99.1,0,3276,3749.6,39848,14087
4,75,99.1,0,3276,3749.6,39870,14105
4,75,99.1,0,3276,3749.6,39890,14119
4,75,99.1,0,3276,3749.6,39906,14135
4,75,99.1,0,3276,3749.6,39919,14147
4,75,99.1,0,3276,3749.6,39934,14162
4,75,99.1,0,3276,3749.6,39939,14168
4,75,99.1,0,3276,3749.6,39940,14174
4,75,99.1,0,3276,3749.6,39910,14152
4,75,99.1,0,3276,3749.6,39797,14080
4,75,99.1,0,3276,3749.6,39577,13943
4,75,99.1,0,3305,3749.6,39258,13753
4,75,99.1,0,3471,3749.6,38890,13532
4,75,99.1,0,3845,3749.6,38499,13291
4,75,99.1,0,4515,3749.6,38133,13068
4,75,99.1,0,5586,3749.6,37833,12884
4,75,99.1,0,7156,3749.6,37615,12758
4,75,99.1,0,9298,3749.6,37482,12679
4,75,99.1,0,12037,3749.6,37389,12622
4,75,99.1,0,15371,3749.6,37310,12576
4,75,99.1,0,19245,3749.6,37238,12537
4,75,99.1,0,23562,3749.6,37179,12510
4,75,99.1,0,28200,3749.6,37118,12481
4,75,99.1,0,33013,3749.6,37066,12456
4,75,99.1,0,37844,3749.6,37019,12435
4,75,99.1,0,42539,3749.6,36978,12416
4,75,99.1,0,46960,3749.6,36957,12407
4,75,99.1,0,50980,3749.6,36956,12411
4,75,99.1,0,54515,3749.6,36959,12409
4,75,99.1,0,57503,3749.6,36960,12407
4,75,99.1,0,59903,3749.6,36953,12409
4,75,99.1,0,61718,3749.6,36939,12404
4,75,99.1,0,62258,3749.6,36927,12404
4,75,99.1,8,62258,3749.6,36920,12403
4,75,99.1,0,62258,3749.6,36922,12407
4,75,99.1,0,62121,3749.6,36926,12412
4,75,99.1,0,61680,3749.6,36933,12421
4,75,99.1,0,61010,3749.6,36951,12431
4,75,99.1,0,60181,3749.6,36964,12439
4,75,99.1,0,59244,3749.6,36978,12446
4,75,99.1,0,58265,3749.6,36985,12452
4,75,99.1,0,57283,3749.6,36986,12456
4,75,99.1,0,56330,3749.6,36980,12453
4,75,99.1,0,55436,3749.6,36963,12449
4,75,99.1,0,54613,3749.6,36949,12442
4,75,99.1,0,53880,3749.6,36931,12431
4,75,99.1,0,53238,3749.6,36915,12425
4,75,99.1,0,52698,3749.6,36905,12418
4,75,99.1,0,52248,3749.6,36896,12412
4,75,99.1,0,51888,3749.6,36893,12415
4,75,99.1,0,51615,3749.6,36889,12412
4,75,99.1,0,51412,3749.6,36895,12414
4,75,99.1,0,51264,3749.6,36902,12418
4,75,99.1,0,51160,3749.6,36910,12425
4,75,99.1,0,51083,3749.6,36924,12430
4,75,99.1,0,51014,3749.6,36951,12445
4,75,99.1,0,50933,3749.6,36974,12459
4,75,99.1,0,50832,3749.6,37001,12472
4,75,99.1,0,50704,3749.6,37033,12494
4,75,99.1,0,50524,3749.6,37066,12512
4,75,99.1,0,50288,3749.6,37101,12534
4,75,99.1,0,49982,3749.6,37132,12554
4,75,99.1,0,49603,3749.6,37159,12574
4,75,99.1,0,49157,3749.6,37175,12586
4,75,99.1,0,48635,3749.6,37199,12603
4,75,99.1,0,48041,3749.6,37221,12616
4,75,99.1,0,47387,3749.6,37248,12634
4,75,99.1,0,46677,3749.6,37279,12652
4,75,99.1,0,45925,3749.6,37313,12670
4,75,99.1,0,45149,3749.6,37348,12690
4,75,99.1,0,44351,3749.6,37377,12709
4,75,99.1,0,43544,3749.6,37407,12727
4,75,99.1,0,42736,3749.6,37438,12747
4,75,99.1,0,41934,3749.6,37465,12763
4,75,99.1,0,41142,3749.6,37491,12779
4,75,99.1,0,40369,3749.6,37513,12792
4,75,99.1,0,39618,3749.6,37540,12810
4,75,99.1,0,38889,3749.6,37565,12826
4,75,99.1,0,38183,3749.6,37587,12843
4,75,99.1,0,37502,3749.6,37611,12858
4,75,99.1,0,36848,3749.6,37638,12876
4,75,99.1,0,36217,3749.6,37662,12890
4,75,99.1,0,35608,3749.6,37684,12903
4,75,99.1,0,35017,3749.6,37713,12921
4,75,99.1,0,34444,3749.6,37742,12942
4,75,99.1,0,33886,3749.6,37768,12956
4,75,99.1,0,33342,3749.6,37798,12978
4,75,99.1,0,32812,3749.6,37826,12993
4,75,99.1,0,32289,3749.6,37838,13002
4,75,99.1,0,31767,3749.6,37816,12991
4,75,99.1,0,31252,3749.6,37755,12956
4,75,99.1,0,30752,3749.6,37647,12890
4,75,99.1,0,30287,3749.6,37490,12794
4,75,99.1,0,29888,3749.6,37309,12685
4,75,99.1,0,29599,3749.6,37109,12564
4,75,99.1,0,29477,3749.6,36908,12440
4,75,99.1,0,29584,3749.6,36710,12323
4,75,99.1,0,29980,3749.6,36550,12220
4,75,99.1,0,30722,3749.6,36425,12147
4,75,99.1,0,31842,3749.6,36325,12084
4,75,99.1,0,33353,3749.6,36255,12041
4,75,99.1,0,35245,3749.6,36199,12009
4,75,99.1,0,37483,3749.6,36153,11978
4,75,99.1,0,40002,3749.6,36123,11960
4,75,99.1,0,42718,3749.6,36100,11946
4,75,99.1,0,45541,3749.6,36086,11936
4,75,99.1,0,48376,3749.6,36074,11929
4,75,99.1,0,51120,3749.6,36070,11926
4,75,99.1,0,53690,3749.6,36062,11919
4,75,99.1,0,56012,3749.6,36055,11920
4,75,99.1,0,58026,3749.6,36045,11911
4,75,99.1,0,59688,3749.6,36037,11911
4,75,99.1,8,60991,3749.6,36031,11906
4,75,99.1,0,61925,3749.6,36022,11901
4,75,99.1,0,62258,3749.6,36020,11903
4,75,99.1,0,62258,3749.6,36025,11906
4,75,99.1,0,62241,3749.6,36038,11913
4,75,99.1,0,61986,3749.6,36053,11922
4,75,99.1,0,61539,3749.6,36070,11930
4,75,99.1,0,60946,3749.6,36084,11940
4,75,99.1,0,60250,3749.6,36102,11950
4,75,99.1,0,59479,3749.6,36120,11960
4,75,99.1,0,58677,3749.6,36136,11972
4,75,99.1,0,57862,3749.6,36140,11973
4,75,99.1,0,57057,3749.6,36148,11976
4,75,99.1,0,56277,3749.6,36150,11980
4,75,99.1,0,55528,3749.6,36153,11981
4,75,99.1,0,54825,3749.6,36155,11984
4,75,99.1,0,54169,3749.6,36162,11985
4,75,99.1,0,53563,3749.6,36167,11989
4,75,99.1,0,53004,3749.6,36176,11993
4,75,99.1,0,52495,3749.6,36188,11998
4,75,99.1,0,52028,3749.6,36199,12006
4,75,99.1,0,51595,3749.6,36215,12012
4,75,99.1,0,51195,3749.6,36232,12025
4,75,99.1,0,50821,3749.6,36251,12034
4,75,99.1,0,50455,3749.6,36274,12048
4,75,99.1,0,50097,3749.6,36299,12063
4,75,99.1,0,49731,3749.6,36328,12080
4,75,99.1,0,49347,3749.6,36361,12096
4,75,99.1,0,48938,3749.6,36389,12114
4,75,99.1,0,48507,3749.6,36424,12134
4,75,99.1,0,48038,3749.6,36450,12151
4,75,99.1,0,47526,3749.6,36482,12168
4,75,99.1,0,46975,3749.6,36513,12189
4,75,99.1,0,46376,3749.6,36541,12207
4,75,99.1,0,45734,3749.6,36568,12221
4,75,99.1,0,45057,3749.6,36598,12241
4,75,99.1,0,44349,3749.6,36626,12261
4,75,99.1,0,43610,3749.6,36659,12281
4,75,99.1,0,42844,3749.6,36689,12295
4,75,99.1,0,42068,3749.6,36715,12308
4,75,99.1,0,41282,3749.6,36744,12328
4,75,99.1,0,40489,3749.6,36775,12347
4,75,99.1,0,39699,3749.6,36798,12362
4,75,99.1,0,38920,3749.6,36820,12377
4,75,99.1,0,38155,3749.6,36850,12391
4,75,99.1,0,37411,3749.6,36872,12409
4,75,99.1,0,36685,3749.6,36898,12422
4,75,99.1,0,35984,3749.6,36928,12441
4,75,99.1,0,35301,3749.6,36957,12458
4,75,99.1,0,34647,3749.6,36983,12474
4,75,99.1,0,34021,3749.6,37007,12489
4,75,99.1,0,33411,3749.6,37033,12506
4,75,99.1,0,32824,3749.6,37055,12522
4,75,99.1,0,32248,3749.6,37083,12539
4,75,99.1,0,31688,3749.6,37114,12559
4,75,99.1,0,31138,3749.6,37143,12575
4,75,99.1,0,30600,3749.6,37159,12585
4,75,99.1,0,30069,3749.6,37158,12583
4,75,99.1,0,29541,3749.6,37121,12562
4,75,99.1,0,29029,3749.6,37031,12511
4,75,99.1,0,28541,3749.6,36908,12437
4,75,99.1,0,28111,3749.6,36752,12346
4,75,99.1,0,27772,3749.6,36577,12242
4,75,99.1,0,27576,3749.6,36396,12130
4,75,99.1,0,27581,3749.6,36229,12024
4,75,99.1,0,27846,3749.6,36084,11941
4,75,99.1,0,28423,3749.6,35969,11872
4,75,99.1,0,29348,3749.6,35876,11815
4,75,99.1,0,30646,3749.6,35805,11773
4,75,99.1,0,32301,3749.6,35750,11741
4,75,99.1,0,34298,3749.6,35711,11718
4,75,99.1,0,36575,3749.6,35681,11699
4,75,99.1,0,39063,3749.6,35666,11691
4,75,99.1,0,41676,3749.6,35657,11683
4,75,99.1,0,44321,3749.6,35656,11685
4,75,99.1,0,46912,3749.6,35660,11686
4,75,99.1,0,49359,3749.6,35668,11691
4,75,99.1,0,51584,3749.6,35681,11697
4,75,99.1,0,53525,3749.6,35696,11702
4,75,99.1,0,55142,3749.6,35708,11712
4,75,99.1,8,56405,3749.6,35712,11715
4,75,99.1,0,57297,3749.6,35722,11719
4,75,99.1,0,57831,3749.6,35736,11730
4,75,99.1,0,58031,3749.6,35760,11742
4,74,99.0,0,57933,3749.6,35780,11755
4,74,99.0,0,57565,3749.6,35810,11772
4,74,99.0,0,56982,3749.6,35842,11788
4,74,99.0,0,56229,3749.6,35880,11812
4,74,99.0,0,55345,3749.6,35913,11830
4,74,99.0,0,54365,3749.6,35946,11847
4,74,99.0,0,53325,3749.6,35981,11868
4,74,99.0,0,52263,3749.6,36009,11881
4,74,99.0,0,51186,3749.6,36036,11899
4,74,99.0,0,50123,3749.6,36057,11910
4,74,99.0,0,49092,3749.6,36065,11918
4,74,99.0,0,48102,3749.6,36067,11916
4,74,99.0,0,47157,3749.6,36070,11919
4,74,99.0,0,46270,3749.6,36070,11923
4,74,99.0,0,45443,3749.6,36070,11923
4,74,99.0,0,44684,3749.6,36080,11927
4,74,99.0,0,44003,3749.6,36082,11933
4,74,99.0,0,43390,3749.6,36099,11942
4,74,99.0,0,42846,3749.6,36115,11951
4,74,99.0,0,42361,3749.6,36135,11963
4,74,99.0,0,41935,3749.6,36161,11976
4,74,99.0,0,41561,3749.6,36186,11990
4,74,99.0,0,41218,3749.6,36218,12010
4,74,99.0,0,40892,3749.6,36250,12029
4,74,99.0,0,40576,3749.6,36283,12051
4,74,99.0,0,40249,3749.6,36320,12072
4,74,99.0,0,39903,3749.6,36360,12094
4,74,99.0,0,39518,3749.6,36401,12113
4,74,99.0,0,39085,3749.6,36440,12139
4,74,99.0,0,38599,3749.6,36482,12160
4,74,99.0,0,38050,3749.6,36528,12185
4,74,99.0,0,37442,3749.6,36584,12214
4,74,99.0,0,36766,3749.6,36648,12247
4,74,99.0,0,36026,3749.6,36729,12286
4,74,99.0,0,35231,3749.6,36812,12327
4,74,99.0,0,34376,3749.6,36901,12371
4,74,99.0,0,33456,3749.6,36983,12413
4,74,99.0,0,32475,3749.6,37066,12456
4,74,99.0,0,31427,3749.6,37141,12496
4,74,99.0,0,30313,3749.6,37208,12533
4,74,99.0,0,29137,3749.6,37260,12566
4,74,99.0,0,27905,3749.6,37303,12588
4,74,99.0,0,26625,3749.6,37334,12613
4,74,99.0,0,25308,3749.6,37360,12633
4,74,99.0,0,23964,3749.6,37376,12646
4,74,99.0,0,22621,3749.6,37389,12663
4,74,99.0,0,21296,3749.6,37396,12673
4,74,99.0,0,20022,3749.6,37410,12688
4,74,99.0,0,18814,3749.6,37433,12703
4,74,99.0,0,17683,3749.6,37456,12719
4,74,99.0,0,16654,3749.6,37486,12737
4,74,99.0,0,15741,3749.6,37511,12758
4,74,99.0,0,14940,3749.6,37535,12772
4,74,99.0,0,14251,3749.6,37553,12790
4,74,99.0,0,13665,3749.6,37551,12787
4,74,99.0,0,13181,3749.6,37504,12761
4,74,99.0,0,12786,3749.6,37412,12710
4,74,99.0,0,12484,3749.6,37274,12622
4,74,99.0,0,12300,3749.6,37112,12522
4,74,99.0,0,12258,3749.6,36920,12404
4,74,99.0,0,12408,3749.6,36722,12286
4,74,99.0,0,12793,3749.6,36537,12173
4,74,99.0,0,13489,3749.6,36381,12079
4,74,99.0,0,14539,3749.6,36256,12004
4,74,99.0,0,15988,3749.6,36165,11948
4,74,99.0,0,17843,3749.6,36092,11906
4,74,99.0,0,20099,3749.6,36051,11881
4,74,99.0,0,22715,3749.6,36016,11865
4,74,99.0,0,25628,3749.6,36002,11852
4,74,99.0,0,28757,3749.6,35997,11849
4,74,99.0,0,32001,3749.6,36002,11854
4,74,99.0,0,35248,3749.6,36021,11860
4,74,99.0,0,38390,3749.6,36051,11875
4,74,99.0,0,41331,3749.6,36085,11892
4,74,99.0,0,43968,3749.6,36129,11912
4,74,99.0,0,46230,3749.6,36173,11938
4,74,99.0,0,48063,3749.6,36222,11960
4,74,99.0,8,49436,3749.6,36277,11988
4,74,99.0,0,50334,3749.6,36332,12021
4,74,99.0,0,50765,3749.6,36391,12049
4,74,99.0,0,50758,3749.6,36444,12078
4,74,99.0,0,50355,3749.6,36491,12108
4,74,99.0,0,49584,3749.6,36534,12133
4,74,99.0,0,48510,3749.6,36575,12159
4,74,99.0,0,47193,3749.6,36613,12179
4,74,99.0,0,45693,3749.6,36654,12207
4,74,99.0,0,44079,3749.6,36701,12230
4,74,99.0,0,42397,3749.6,36733,12245
4,74,99.0,0,40701,3749.6,36760,12260
4,74,99.0,0,39031,3749.6,36776,12270
4,74,99.0,0,37429,3749.6,36792,12278
4,74,99.0,0,35928,3749.6,36796,12280
4,74,99.0,0,34544,3749.6,36802,12288
4,74,99.0,0,33304,3749.6,36804,12289
4,74,99.0,0,32218,3749.6,36810,12292
4,74,99.0,0,31282,3749.6,36814,12296
4,74,99.0,0,30503,3749.6,36821,12300
4,74,99.0,0,29880,3749.6,36835,12309
4,74,99.0,0,29394,3749.6,36855,12320
4,74,99.0,0,29032,3749.6,36873,12331
4,74,99.0,0,28776,3749.6,36898,12347
4,74,99.0,0,28593,3749.6,36932,12367
4,74,99.0,0,28472,3749.6,36964,12383
4,74,99.0,0,28381,3749.6,37006,12407
4,74,99.0,0,28290,3749.6,37049,12432
4,74,99.0,0,28178,3749.6,37097,12458
4,74,99.0,0,28029,3749.6,37153,12490
4,74,99.0,0,27811,3749.6,37206,12519
4,74,99.0,0,27509,3749.6,37260,12550
4,74,99.0,0,27111,3749.6,37302,12578
4,74,99.0,0,26607,3749.6,37348,12602
4,74,99.0,0,26001,3749.6,37399,12632
4,74,99.0,0,25288,3749.6,37452,12661
4,74,99.0,0,24473,3749.6,37506,12692
4,74,99.0,0,23571,3749.6,37551,12719
4,74,99.0,0,22593,3749.6,37595,12749
4,74,99.0,0,21549,3749.6,37636,12773
4,74,99.0,0,20462,3749.6,37680,12801
4,74,99.0,0,19346,3749.6,37731,12827
4,74,99.0,0,18218,3749.6,37781,12858
4,74,99.0,0,17083,3749.6,37836,12890
4,74,99.0,0,15969,3749.6,37888,12920
4,74,99.0,0,14876,3749.6,37941,12951
4,74,99.0,0,13809,3749.6,37993,12983
4,74,99.0,0,12769,3749.6,38043,13011
4,74,99.0,0,11766,3749.6,38088,13039
4,74,99.0,0,10791,3749.6,38136,13068
4,74,99.0,0,9843,3749.6,38174,13095
4,74,99.0,0,8922,3749.6,38185,13101
4,74,99.0,0,8029,3749.6,38159,13086
4,74,99.0,0,7174,3749.6,38078,13039
4,74,99.0,0,6374,3749.6,37945,12958
4,74,99.0,0,5661,3749.6,37771,12856
4,74,99.0,0,5094,3749.6,37572,12736
4,74,99.0,0,4731,3749.6,37366,12607
4,74,99.0,0,4669,3749.6,37178,12496
4,74,99.0,0,4983,3749.6,37012,12400
4,74,99.0,0,5742,3749.6,36899,12336
4,74,99.0,0,7004,3749.6,36821,12286
4,74,99.0,0,8785,3749.6,36769,12253
4,74,99.0,0,11075,3749.6,36732,12227
4,74,99.0,0,13821,3749.6,36716,12215
4,74,99.0,0,16950,3749.6,36712,12213
4,74,99.0,0,20345,3749.6,36715,12213
4,74,99.0,0,23903,3749.6,36731,12222
4,74,99.0,0,27479,3749.6,36754,12236
4,74,99.0,0,30958,3749.6,36789,12256
4,74,99.0,0,34205,3749.6,36822,12278
4,74,99.0,0,37127,3749.6,36865,12302
4,74,99.0,0,39628,3749.6,36909,12329
4,74,99.0,0,41644,3749.6,36956,12357
4,74,99.0,8,43136,3749.6,37000,12382
4,74,99.0,0,44083,3749.6,37055,12414
4,74,99.0,0,44507,3749.6,37106,12446
4,74,99.0,0,44434,3749.6,37164,12482
4,74,99.0,0,43905,3749.6,37217,12512
4,74,99.0,0,42985,3749.6,37275,12543
4,74,99.0,0,41734,3749.6,37321,12567
4,74,99.0,0,40226,3749.6,37355,12592
4,74,99.0,0,38528,3749.6,37384,12613
4,74,99.0,0,36702,3749.6,37400,12622
4,74,99.0,0,34821,3749.6,37409,12625
4,74,99.0,0,32950,3749.6,37407,12624
4,74,99.0,0,31138,3749.6,37405,12624
4,74,99.0,0,29443,3749.6,37398,12619
4,74,99.0,0,27909,3749.6,37396,12624
4,74,99.0,0,26560,3749.6,37397,12620
4,74,99.0,0,25432,3749.6,37396,12622
4,74,99.0,0,24525,3749.6,37404,12625
4,74,99.0,0,23840,3749.6,37421,12632
4,74,99.0,0,23373,3749.6,37446,12643
4,74,99.0,0,23101,3749.6,37475,12662
4,74,99.0,0,22993,3749.6,37509,12680
4,74,99.0,0,23013,3749.6,37547,12701
4,74,99.0,0,23113,3749.6,37582,12723
4,74,99.0,0,23265,3749.6,37623,12750
4,74,99.0,0,23416,3749.6,37660,12768
4,74,99.0,0,23528,3749.6,37692,12790
4,74,99.0,0,23567,3749.6,37722,12810
4,74,99.0,0,23508,3749.6,37752,12829
4,74,99.0,0,23337,3749.6,37779,12848
4,74,99.0,0,23039,3749.6,37804,12869
4,74,99.0,0,22621,3749.6,37820,12880
4,74,99.0,0,22087,3749.6,37826,12887
4,74,99.0,0,21445,3749.6,37820,12895
4,74,99.0,0,20732,3749.6,37804,12891
4,74,99.0,0,19967,3749.6,37772,12885
4,74,99.0,0,19189,3749.6,37729,12872
4,74,99.0,0,18428,3749.6,37692,12861
4,74,99.0,0,17717,3749.6,37647,12846
4,74,99.0,0,17092,3749.6,37605,12833
4,74,99.0,0,16582,3749.6,37569,12818
4,74,99.0,0,16228,3749.6,37544,12811
4,74,99.0,0,16029,3749.6,37536,12809
4,74,99.0,0,15997,3749.6,37548,12817
4,74,99.0,0,16139,3749.6,37580,12835
4,74,99.0,0,16431,3749.6,37628,12853
4,74,99.0,0,16845,3749.6,37639,12858
4,74,99.0,0,17347,3749.6,37612,12844
4,74,99.0,0,17895,3749.6,37547,12808
4,75,98.9,0,18467,3749.6,37440,12743
4,75,98.9,0,19057,3749.6,37291,12656
4,75,98.9,0,19665,3749.6,37116,12552
4,75,98.9,0,20327,3749.6,36932,12441
4,75,98.9,0,21083,3749.6,36739,12324
4,75,98.9,0,22004,3749.6,36564,12216
4,75,98.9,0,23166,3749.6,36428,12137
4,75,98.9,0,24636,3749.6,36331,12077
4,75,98.9,0,26461,3749.6,36257,12033
4,75,98.9,0,28662,3749.6,36208,12003
4,75,98.9,0,31235,3749.6,36183,11981
4,75,98.9,0,34142,3749.6,36183,11977
4,75,98.9,0,37309,3749.6,36200,11978
4,75,98.9,0,40638,3749.6,36222,11982
4,75,98.9,0,44016,3749.6,36241,11992
4,75,98.9,0,47335,3749.6,36267,12002
4,75,98.9,0,50472,3749.6,36292,12012
4,75,98.9,0,53325,3749.6,36317,12025
4,75,98.9,0,55792,3749.6,36338,12038
4,75,98.9,0,57822,3749.6,36356,12051
4,75,98.9,8,59369,3749.6,36376,12065
4,75,98.9,0,60414,3749.6,36398,12079
4,75,98.9,0,60971,3749.6,36424,12096
4,75,98.9,0,61056,3749.6,36457,12116
4,75,98.9,0,60720,3749.6,36496,12141
4,75,98.9,0,60021,3749.6,36542,12167
4,75,98.9,0,59014,3749.6,36585,12195
4,75,98.9,0,57752,3749.6,36627,12220
4,75,98.9,0,56302,3749.6,36671,12246
4,75,98.9,0,54721,3749.6,36714,12270
4,75,98.9,0,53052,3749.6,36753,12295
4,75,98.9,0,51335,3749.6,36792,12310
4,75,98.9,0,49623,3749.6,36818,12327
4,75,98.9,0,47928,3749.6,36835,12338
4,75,98.9,0,46280,3749.6,36838,12347
4,75,98.9,0,44707,3749.6,36840,12347
4,75,98.9,0,43234,3749.6,36837,12346
4,75,98.9,0,41866,3749.6,36820,12347
4,75,98.9,0,40615,3749.6,36790,12340
4,75,98.9,0,39512,3749.6,36771,12337
4,75,98.9,0,38550,3749.6,36756,12336
4,75,98.9,0,37737,3749.6,36748,12336
4,75,98.9,0,37073,3749.6,36752,12343
4,75,98.9,0,36547,3749.6,36761,12350
4,75,98.9,0,36159,3749.6,36774,12360
4,75,98.9,0,35891,3749.6,36794,12376
4,75,98.9,0,35713,3749.6,36824,12397
4,75,98.9,0,35602,3749.6,36865,12422
4,75,98.9,0,35522,3749.6,36903,12444
4,75,98.9,0,35447,3749.6,36944,12469
4,75,98.9,0,35341,3749.6,36983,12494
4,75,98.9,0,35174,3749.6,37021,12522
4,75,98.9,0,34913,3749.6,37061,12547
4,75,98.9,0,34546,3749.6,37102,12575
4,75,98.9,0,34048,3749.6,37147,12604
4,75,98.9,0,33418,3749.6,37198,12631
4,75,98.9,0,32649,3749.6,37250,12662
4,75,98.9,0,31740,3749.6,37289,12687
4,75,98.9,0,30715,3749.6,37327,12710
4,75,98.9,0,29568,3749.6,37369,12733
4,75,98.9,0,28336,3749.6,37408,12755
4,75,98.9,0,27037,3749.6,37460,12783
4,75,98.9,0,25685,3749.6,37505,12806
4,75,98.9,0,24304,3749.6,37553,12828
4,75,98.9,0,22920,3749.6,37597,12853
4,75,98.9,0,21558,3749.6,37640,12873
4,75,98.9,0,20226,3749.6,37686,12898
4,75,98.9,0,18943,3749.6,37724,12920
4,75,98.9,0,17702,3749.6,37746,12931
4,75,98.9,0,16536,3749.6,37731,12920
4,75,98.9,0,15440,3749.6,37665,12882
4,75,98.9,0,14431,3749.6,37531,12801
4,75,98.9,0,13555,3749.6,37335,12686
4,75,98.9,0,12850,3749.6,37100,12543
4,75,98.9,0,12406,3749.6,36859,12403
4,75,98.9,0,12311,3749.6,36633,12271
4,75,98.9,0,12680,3749.6,36441,12167
4,75,98.9,0,13596,3749.6,36263,12074
4,75,98.9,0,15135,3749.6,36121,11993
4,75,98.9,0,17338,3749.6,36012,11937
4,75,98.9,0,20200,3749.6,35930,11893
4,75,98.9,0,23679,3749.6,35860,11860
4,75,98.9,0,27697,3749.6,35801,11834
4,75,98.9,0,32139,3749.6,35749,11808
4,75,98.9,0,36853,3749.6,35710,11790
4,75,98.9,0,41704,3749.6,35685,11777
4,75,98.9,0,46513,3749.6,35667,11771
4,75,98.9,0,51133,3749.6,35663,11770
4,75,98.9,0,55419,3749.6,35684,11777
4,75,98.9,0,59264,3749.6,35729,11791
4,75,98.9,0,62258,3749.6,35796,11814
4,75,98.9,0,62258,3749.6,35876,11844
4,75,98.9,0,62258,3749.6,35983,11885
4,75,98.9,8,62258,3749.6,36051,11917
4,75,98.9,0,62258,3749.6,36101,11945
4,75,98.9,0,62242,3749.6,36147,11970
4,75,98.9,0,61924,3749.6,36193,11994
4,75,98.9,0,61196,3749.6,36244,12021
4,75,98.9,0,60115,3749.6,36295,12047
4,75,98.9,0,58753,3749.6,36341,12072
4,75,98.6,0,57168,3749.6,36378,12090
4,75,98.6,0,55429,3749.6,36407,12105
4,75,98.6,0,53593,3749.6,36426,12118
4,75,98.6,0,51733,3749.6,36448,12132
4,75,98.6,0,49892,3749.6,36501,12156
4,75,98.6,0,48107,3749.6,36577,12187
4,75,98.6,0,46424,3749.6,36653,12220
4,75,98.6,0,44857,3749.6,36712,12241
4,75,98.6,0,43412,3749.6,36747,12259
4,75,98.6,0,42094,3749.6,36781,12279
4,75,98.6,0,40892,3749.6,36814,12294
4,75,98.6,0,39792,3749.6,36837,12308
4,75,98.6,0,38787,3749.6,36869,12324
4,75,98.6,0,37853,3749.6,36900,12342
4,75,98.6,0,36989,3749.6,36919,12353
4,75,98.6,0,36180,3749.6,36932,12366
4,75,98.6,0,35410,3749.6,36945,12380
4,75,98.6,0,34679,3749.6,36955,12390
4,75,98.6,0,33972,3749.6,36972,12406
4,75,98.6,0,33289,3749.6,36990,12418
4,75,98.6,0,32630,3749.6,37009,12429
4,75,98.6,0,31994,3749.6,37025,12447
4,75,98.6,0,31361,3749.6,37043,12459
4,75,98.6,0,30748,3749.6,37066,12474
4,75,98.6,0,30153,3749.6,37080,12489
4,75,98.6,0,29573,3749.6,37081,12493
4,75,98.6,0,29006,3749.6,37070,12497
4,75,98.6,0,28454,3749.6,37074,12504
4,75,98.6,0,27921,3749.6,37097,12518
4,75,98.6,0,27409,3749.6,37131,12536
4,75,98.6,0,26922,3749.6,37173,12554
4,75,98.6,0,26460,3749.6,37217,12579
4,75,98.6,0,26019,3749.6,37258,12602
4,75,98.6,0,25587,3749.6,37293,12619
4,75,98.6,0,25154,3749.6,37324,12638
4,75,98.6,0,24726,3749.6,37343,12653
4,75,98.6,0,24270,3749.6,37357,12666
4,75,98.6,0,23807,3749.6,37363,12677
4,75,98.6,0,23316,3749.6,37372,12693
4,75,98.6,0,22802,3749.6,37376,12703
4,75,98.6,0,22277,3749.6,37390,12722
4,75,98.6,0,21739,3749.6,37401,12737
4,75,98.6,0,21190,3749.6,37398,12745
4,75,98.6,0,20640,3749.6,37388,12745
4,75,98.6,0,20094,3749.6,37357,12730
4,75,98.6,0,19564,3749.6,37279,12683
4,75,98.6,0,19072,3749.6,37143,12602
4,75,98.6,0,18657,3749.6,36966,12493
4,75,98.6,0,18362,3749.6,36779,12375
4,75,98.6,0,18253,3749.6,36619,12268
4,75,98.6,0,18410,3749.6,36500,12189
4,75,98.6,0,18908,3749.6,36401,12117
4,75,98.6,0,19794,3749.6,36320,12065
4,75,98.6,0,21107,3749.6,36268,12028
4,75,98.6,0,22859,3749.6,36227,12002
4,75,98.6,0,25026,3749.6,36205,11984
4,75,98.6,0,27554,3749.6,36210,11979
4,75,98.6,0,30362,3749.6,36226,11983
4,75,98.6,0,33364,3749.6,36244,11988
4,75,98.6,0,36439,3749.6,36259,11994
4,75,98.6,0,39473,3749.6,36278,12001
4,75,98.6,0,42346,3749.6,36298,12013
4,75,98.6,0,44967,3749.6,36316,12023
4,75,98.6,0,47261,3749.6,36341,12037
4,75,98.6,0,49146,3749.6,36375,12055
4,75,98.6,8,50600,3749.6,36402,12067
4,75,98.6,0,51599,3749.6,36431,12087
4,75,98.6,0,52153,3749.6,36458,12104
4,75,98.6,0,52279,3749.6,36488,12121
4,75,98.6,0,52027,3749.6,36526,12142
4,75,98.6,0,51436,3749.6,36551,12160
4,75,98.6,0,50558,3749.6,36580,12182
4,75,98.6,0,49464,3749.6,36605,12200
4,75,98.6,0,48211,3749.6,36633,12220
4,75,98.6,0,46844,3749.6,36642,12226
4,75,98.6,0,45413,3749.6,36645,12234
4,75,98.6,0,43968,3749.6,36653,12242
4,75,98.6,0,42555,3749.6,36662,12250
4,75,98.6,0,41202,3749.6,36664,12255
4,75,98.6,0,39943,3749.6,36664,12257
4,75,98.6,0,38800,3749.6,36655,12260
4,75,98.6,0,37780,3749.6,36645,12258
4,75,98.6,0,36894,3749.6,36629,12258
4,75,98.6,0,36143,3749.6,36613,12253
4,75,98.6,0,35528,3749.6,36602,12254
4,75,98.6,0,35049,3749.6,36600,12259
4,75,98.6,0,34695,3749.6,36607,12266
4,75,98.6,0,34444,3749.6,36622,12275
4,75,98.6,0,34285,3749.6,36645,12289
4,75,98.6,0,34189,3749.6,36669,12305
4,75,98.6,0,34140,3749.6,36686,12317
4,75,98.6,0,34107,3749.6,36705,12332
4,75,98.6,0,34069,3749.6,36726,12349
4,75,98.6,0,34007,3749.6,36747,12369
4,75,98.6,0,33898,3749.6,36778,12393
4,75,98.6,0,33718,3749.6,36807,12415
4,75,98.6,0,33455,3749.6,36844,12443
4,75,98.6,0,33097,3749.6,36888,12475
4,75,98.6,0,32637,3749.6,36940,12506
4,75,98.6,0,32069,3749.6,36989,12539
4,75,98.6,0,31391,3749.6,37035,12570
4,75,98.6,0,30599,3749.6,37088,12601
4,75,98.6,0,29696,3749.6,37152,12636
4,75,98.6,0,28689,3749.6,37217,12677
4,75,98.6,0,27584,3749.6,37297,12719
4,75,98.6,0,26379,3749.6,37383,12765
4,75,98.6,0,25088,3749.6,37464,12811
4,75,98.6,0,23722,3749.6,37526,12846
4,75,98.6,0,22274,3749.6,37549,12870
4,75,98.6,0,20764,3749.6,37568,12890
4,75,98.6,0,19204,3749.6,37586,12908
4,75,98.6,0,17618,3749.6,37608,12928
4,75,98.6,0,16030,3749.6,37642,12952
4,75,98.6,0,14460,3749.6,37703,12984
4,75,98.6,0,12932,3749.6,37779,13017
4,75,98.6,0,11470,3749.6,37848,13048
4,75,98.6,0,10081,3749.6,37906,13075
4,75,98.6,0,8771,3749.6,37953,13102
4,75,98.6,0,7554,3749.6,37983,13115
4,75,98.6,0,6422,3749.6,37981,13109
4,75,98.6,0,5383,3749.6,37909,13059
4,75,98.6,0,4448,3749.6,37719,12941
4,75,98.6,0,3648,3749.6,37440,12770
4,75,98.6,0,3276,3749.6,37148,12594
4,75,98.6,0,3276,3749.6,36889,12435
4,75,98.6,0,3389,3749.6,36711,12327
4,75,98.6,0,4031,3749.6,36612,12257
4,75,98.6,0,5283,3749.6,36550,12213
4,75,98.6,0,7194,3749.6,36512,12177
4,75,98.6,0,9768,3749.6,36497,12162
4,75,98.6,0,12954,3749.6,36497,12154
4,75,98.6,0,16653,3749.6,36509,12159
4,75,98.6,0,20737,3749.6,36526,12164
4,75,98.6,0,25049,3749.6,36552,12176
4,75,98.6,0,29419,3749.6,36591,12199
4,75,98.6,0,33679,3749.6,36637,12220
4,75,98.6,0,37666,3749.6,36693,12249
4,75,98.6,0,41230,3749.6,36751,12279
4,75,98.6,0,44260,3749.6,36815,12310
4,75,98.6,0,46668,3749.6,36873,12343
4,75,98.6,0,48409,3749.6,36934,12375
4,75,98.6,8,49450,3749.6,36990,12407
4,75,98.6,0,49815,3749.6,37050,12441
4,75,98.6,0,49563,3749.6,37113,12475
4,75,98.6,0,48736,3749.6,37179,12512
4,75,98.6,0,47423,3749.6,37251,12553
4,75,98.6,0,45708,3749.6,37316,12589
4,75,98.6,0,43675,3749.6,37369,12624
4,75,98.6,0,41419,3749.6,37417,12655
4,75,98.6,0,39023,3749.6,37451,12675
4,75,98.6,0,36554,3749.6,37475,12692
4,75,98.6,0,34101,3749.6,37485,12699
4,75,98.6,0,31706,3749.6,37458,12693
4,75,98.6,0,29450,3749.6,37381,12669
4,75,98.6,0,27365,3749.6,37261,12625
4,75,98.6,0,25515,3749.6,37131,12574
4,75,98.6,0,23943,3749.6,37015,12530
4,75,98.6,0,22714,3749.6,36925,12492
4,75,98.6,0,21854,3749.6,36862,12465
4,75,98.6,0,21388,3749.6,36824,12445
4,75,98.6,0,21325,3749.6,36785,12426
4,75,98.6,0,21665,3749.6,36751,12413
4,75,98.6,0,22372,3749.6,36721,12404
4,75,98.6,0,23398,3749.6,36707,12397
4,75,98.6,0,24681,3749.6,36705,12404
4,75,98.6,0,26161,3749.6,36716,12408
4,75,98.6,0,27758,3749.6,36732,12417
4,75,98.6,0,29384,3749.6,36752,12423
4,75,98.6,0,30978,3749.6,36776,12438
4,75,98.6,0,32465,3749.6,36806,12453
4,75,98.6,0,33781,3749.6,36846,12475
4,75,98.6,0,34888,3749.6,36886,12492
4,75,98.6,0,35733,3749.6,36934,12517
4,75,98.6,0,36302,3749.6,36982,12539
4,75,98.6,0,36587,3749.6,37030,12564
4,75,98.6,0,36581,3749.6,37083,12587
4,75,98.6,0,36295,3749.6,37131,12610
4,75,98.6,0,35759,3749.6,37187,12639
4,75,98.6,0,34997,3749.6,37233,12661
4,75,98.6,0,34028,3749.6,37285,12686
4,75,98.6,0,32902,3749.6,37338,12709
4,75,98.6,0,31649,3749.6,37401,12734
4,75,98.6,0,30301,3749.6,37473,12765
4,75,98.6,0,28890,3749.6,37547,12798
4,75,98.6,0,27449,3749.6,37604,12826
4,75,98.6,0,26004,3749.6,37635,12842
4,75,98.6,0,24569,3749.6,37640,12854
4,75,98.6,0,23156,3749.6,37646,12858
4,75,98.6,0,21792,3749.6,37649,12853
4,75,98.6,0,20497,3749.6,37599,12822
4,75,98.6,0,19292,3749.6,37505,12770
4,75,98.6,0,18216,3749.6,37388,12701
4,75,98.6,0,17321,3749.6,37264,12623
4,75,98.6,0,16660,3749.6,37136,12541
4,75,98.6,0,16286,3749.6,37008,12460
4,75,98.6,0,16272,3749.6,36899,12396
4,75,98.6,0,16676,3749.6,36824,12351
4,75,98.6,0,17533,3749.6,36767,12316
4,75,98.6,0,18849,3749.6,36726,12296
4,75,98.6,0,20620,3749.6,36701,12282
4,75,98.6,0,22802,3749.6,36683,12272
4,75,98.6,0,25304,3749.6,36677,12269
4,75,98.6,0,28050,3749.6,36673,12269
4,75,98.6,0,30936,3749.6,36681,12275
4,75,98.6,0,33840,3749.6,36688,12279
4,75,98.6,0,36661,3749.6,36696,12289
4,75,98.6,0,39299,3749.6,36710,12297
4,75,98.6,0,41664,3749.6,36728,12309
4,75,98.6,0,43688,3749.6,36749,12324
4,75,98.6,0,45315,3749.6,36770,12342
4,75,98.6,0,46517,3749.6,36800,12361
4,75,98.6,0,47293,3749.6,36836,12389
4,75,98.6,0,47642,3749.6,36876,12413
4,75,98.6,0,47589,3749.6,36919,12433
4,75,98.6,0,47175,3749.6,36968,12464
4,75,98.6,0,46432,3749.6,37011,12487
4,75,98.6,0,45413,3749.6,37056,12508
4,75,98.6,0,44163,3749.6,37084,12527
4,75,98.6,0,42736,3749.6,37108,12540
4,75,98.6,0,41192,3749.6,37118,12547
4,75,98.6,0,39570,3749.6,37122,12552
4,75,98.6,0,37923,3749.6,37116,12549
4,75,98.6,0,36312,3749.6,37106,12545
4,75,98.6,0,34770,3749.6,37094,12540
4,75,98.6,0,33338,3749.6,37086,12534
4,75,98.6,0,32065,3749.6,37078,12534
4,75,98.6,0,30964,3749.6,37072,12530
4,75,98.6,0,30064,3749.6,37070,12529
4,75,98.6,0,29367,3749.6,37075,12532
4,75,98.6,0,28874,3749.6,37080,12536
4,75,98.6,0,28572,3749.6,37095,12546
4,75,98.6,0,28441,3749.6,37125,12557
4,75,98.6,0,28440,3749.6,37178,12585
4,75,98.6,0,28536,3749.6,37245,12617
4,75,98.6,0,28695,3749.6,37304,12650
4,75,98.6,0,28855,3749.6,37375,12688
4,75,98.6,0,28966,3749.6,37440,12725
4,75,98.6,0,28988,3749.6,37514,12765
4,75,98.6,0,28862,3749.6,37609,12812
4,75,98.6,0,28542,3749.6,37709,12863
4,75,98.6,0,28003,3749.6,37821,12922
4,75,98.6,0,27224,3749.6,37934,12977
4,75,98.6,0,26170,3749.6,38041,13035
4,75,98.6,0,24846,3749.6,38141,13087
4,75,98.6,0,23244,3749.6,38238,13139
4,75,98.6,0,21379,3749.6,38332,13188
4,75,98.6,0,19271,3749.6,38409,13231
4,75,98.6,0,16942,3749.6,38472,13269
4,75,98.6,0,14448,3749.6,38517,13296
4,75,98.6,0,11828,3749.6,38555,13322
4,75,98.6,0,9130,3749.6,38586,13342
4,75,98.6,0,6428,3749.6,38620,13365
4,75,98.6,0,3772,3749.6,38647,13385
4,75,98.6,0,3276,3749.6,38668,13400
4,75,98.6,0,3276,3749.6,38678,13408
4,75,98.6,0,3276,3749.6,38655,13397
4,75,98.6,0,3276,3749.6,38580,13358
4,75,98.6,0,3276,3749.6,38447,13282
4,75,98.6,0,3276,3749.6,38250,13165
4,75,98.6,0,3276,3749.6,38021,13029
4,75,98.6,0,3276,3749.6,37782,12889
4,75,98.6,0,3315,3749.6,37574,12765
4,75,98.6,0,3775,3749.6,37405,12664
4,75,98.6,0,4722,3749.6,37276,12584
4,75,98.6,0,6186,3749.6,37175,12522
4,75,98.6,0,8181,3749.6,37104,12479
4,75,98.6,0,10678,3749.6,37059,12457
4,75,98.6,0,13624,3749.6,37026,12432
4,75,98.6,0,16924,3749.6,37003,12421
4,75,98.6,0,20478,3749.6,36993,12414
4,75,98.6,0,24175,3749.6,36981,12412
4,75,98.6,0,27880,3749.6,36967,12405
4,75,98.6,0,31474,3749.6,36943,12401
4,75,98.6,0,34854,3749.6,36915,12398
4,75,98.6,0,37918,3749.6,36895,12394
4,75,98.6,0,40604,3749.6,36902,12400
4,75,98.6,0,42850,3749.6,36921,12409
4,75,98.6,0,44638,3749.6,36940,12421
4,75,98.6,8,45965,3749.6,36953,12427
4,75,98.6,0,46851,3749.6,36965,12435
4,75,98.6,0,47330,3749.6,36976,12445
4,75,98.6,0,47429,3749.6,36982,12452
4,75,98.6,0,47219,3749.6,37001,12465
4,75,98.6,0,46748,3749.6,37024,12481
4,75,98.6,0,46077,3749.6,37049,12497
4,75,98.6,0,45270,3749.6,37074,12512
4,75,98.6,0,44366,3749.6,37095,12531
4,75,98.6,0,43410,3749.6,37114,12536
4,75,98.6,0,42442,3749.6,37130,12545
4,75,98.6,0,41488,3749.6,37140,12550
4,75,98.6,0,40577,3749.6,37149,12557
4,75,98.6,0,39719,3749.6,37152,12561
4,75,98.6,0,38924,3749.6,37155,12562
4,75,98.6,0,38214,3749.6,37160,12564
4,75,98.6,0,37588,3749.6,37170,12566
4,75,98.6,0,37042,3749.6,37175,12568
4,75,98.6,0,36580,3749.6,37172,12567
4,75,98.6,0,36188,3749.6,37160,12566
4,75,98.6,0,35872,3749.6,37166,12571
4,75,98.6,0,35616,3749.6,37180,12576
4,75,98.5,0,35416,3749.6,37196,12589
4,75,98.5,0,35261,3749.6,37210,12597
4,75,98.5,0,35142,3749.6,37227,12610
4,75,98.5,0,35038,3749.6,37246,12624
4,75,98.5,0,34939,3749.6,37262,12633
4,75,98.5,0,34829,3749.6,37285,12645
4,75,98.5,0,34703,3749.6,37310,12663
4,75,98.5,0,34540,3749.6,37331,12675
4,75,98.5,0,34335,3749.6,37356,12690
4,75,98.5,0,34077,3749.6,37379,12704
4,75,98.5,0,33766,3749.6,37408,12721
4,75,98.5,0,33406,3749.6,37432,12738
4,75,98.5,0,32993,3749.6,37458,12754
4,75,98.5,0,32525,3749.6,37485,12769
4,75,98.5,0,32008,3749.6,37513,12790
4,75,98.5,0,31447,3749.6,37540,12803
4,75,98.5,0,30846,3749.6,37567,12821
4,75,98.5,0,30223,3749.6,37589,12835
4,75,98.5,0,29576,3749.6,37616,12852
4,75,98.5,0,28911,3749.6,37642,12867
4,75,98.5,0,28238,3749.6,37668,12882
4,75,98.5,0,27564,3749.6,37697,12900
4,75,98.5,0,26892,3749.6,37720,12913
4,75,98.5,0,26230,3749.6,37747,12931
4,75,98.5,0,25582,3749.6,37777,12951
4,75,98.5,0,24949,3749.6,37808,12969
4,75,98.5,0,24325,3749.6,37824,12977
4,75,98.5,0,23715,3749.6,37817,12972
4,75,98.5,0,23126,3749.6,37760,12938
4,75,98.5,0,22568,3749.6,37659,12879
4,75,98.5,0,22063,3749.6,37522,12796
4,75,98.5,0,21644,3749.6,37361,12699
4,75,98.5,0,21359,3749.6,37198,12594
4,75,98.5,0,21281,3749.6,37041,12498
4,75,98.5,0,21468,3749.6,36915,12421
4,75,98.5,0,21987,3749.6,36824,12362
4,75,98.5,0,22887,3749.6,36748,12315
4,75,98.5,0,24188,3749.6,36694,12282
4,75,98.5,0,25896,3749.6,36650,12255
4,75,98.5,0,27980,3749.6,36625,12239
4,75,98.5,0,30383,3749.6,36612,12227
4,75,98.5,0,33031,3749.6,36607,12225
4,75,98.5,0,35831,3749.6,36621,12227
4,75,98.5,0,38690,3749.6,36643,12236
4,75,98.5,0,41491,3749.6,36676,12249
4,75,98.5,0,44138,3749.6,36712,12267
4,75,98.5,0,46534,3749.6,36754,12283
4,75,98.5,0,48607,3749.6,36804,12307
4,75,98.5,8,50299,3749.6,36855,12331
4,75,98.5,0,51571,3749.6,36894,12353
4,75,98.5,0,52416,3749.6,36934,12376
4,75,98.5,0,52817,3749.6,36966,12395
4,75,98.5,0,52797,3749.6,37000,12414
4,75,98.5,0,52393,3749.6,37037,12436
4,75,98.5,0,51650,3749.6,37079,12457
4,75,98.5,0,50623,3749.6,37121,12480
4,75,98.5,0,49373,3749.6,37169,12509
4,75,98.5,0,47955,3749.6,37213,12535
4,75,98.5,0,46425,3749.6,37253,12558
4,75,98.5,0,44825,3749.6,37284,12575
4,75,98.5,0,43211,3749.6,37303,12587
4,75,98.5,0,41611,3749.6,37317,12596
4,75,98.5,0,40064,3749.6,37330,12607
4,75,98.5,0,38597,3749.6,37340,12612
4,75,98.5,0,37227,3749.6,37349,12616
4,75,98.5,0,35977,3749.6,37358,12620
4,75,98.5,0,34847,3749.6,37364,12625
4,75,98.5,0,33854,3749.6,37372,12631
4,75,98.5,0,33000,3749.6,37386,12639
4,75,98.5,0,32278,3749.6,37403,12649
4,75,98.5,0,31679,3749.6,37422,12656
4,75,98.5,0,31198,3749.6,37445,12666
4,75,98.5,0,30812,3749.6,37473,12685
4,75,98.5,0,30511,3749.6,37502,12699
4,75,98.5,0,30254,3749.6,37535,12718
4,75,98.5,0,30037,3749.6,37565,12738
4,75,98.5,0,29830,3749.6,37595,12753
4,75,98.5,0,29612,3749.6,37630,12774
4,75,98.5,0,29358,3749.6,37671,12797
4,75,98.5,0,29057,3749.6,37708,12821
4,75,98.5,0,28691,3749.6,37757,12845
4,75,98.5,0,28254,3749.6,37818,12880
4,75,98.5,0,27740,3749.6,37888,12914
4,75,98.5,0,27144,3749.6,37961,12951
4,75,98.5,0,26452,3749.6,38022,12984
4,75,98.5,0,25659,3749.6,38078,13016
4,75,98.5,0,24776,3749.6,38126,13043
4,75,98.5,0,23798,3749.6,38173,13073
4,75,98.5,0,22735,3749.6,38223,13100
4,75,98.5,0,21594,3749.6,38269,13130
4,75,98.5,0,20393,3749.6,38317,13159
4,75,98.5,0,19148,3749.6,38367,13186
4,75,98.5,0,17861,3749.6,38423,13219
4,75,98.5,0,16561,3749.6,38478,13252
4,75,98.5,0,15265,3749.6,38535,13288
4,75,98.5,0,13976,3749.6,38593,13319
4,75,98.5,0,12697,3749.6,38653,13352
4,75,98.5,0,11443,3749.6,38719,13389
4,75,98.5,0,10219,3749.6,38781,13425
4,75,98.5,0,9025,3749.6,38845,13465
4,75,98.5,0,7844,3749.6,38893,13488
4,75,98.5,0,6694,3749.6,38919,13501
4,75,98.5,0,5557,3749.6,38889,13481
4,75,98.5,0,4457,3749.6,38790,13425
4,75,98.5,0,3407,3749.6,38632,13331
4,75,98.5,0,3276,3749.6,38435,13209
4,75,98.5,0,3276,3749.6,38227,13083
4,75,98.5,0,3276,3749.6,38033,12968
4,75,98.5,0,3276,3749.6,37867,12869
4,75,98.5,0,3557,3749.6,37731,12785
4,75,98.5,0,4331,3749.6,37629,12720
4,75,98.5,0,5649,3749.6,37567,12682
4,75,98.5,0,7520,3749.6,37529,12654
4,75,98.5,0,9923,3749.6,37511,12645
4,75,98.5,0,12782,3749.6,37506,12640
4,75,98.5,0,16010,3749.6,37510,12642
4,75,98.5,0,19495,3749.6,37522,12650
4,75,98.5,0,23095,3749.6,37539,12661
4,75,98.5,0,26675,3749.6,37557,12676
4,75,98.5,0,30098,3749.6,37579,12688
4,75,98.5,0,33256,3749.6,37608,12708
4,75,98.5,0,36047,3749.6,37643,12729
4,75,98.5,0,38384,3749.6,37678,12749
4,75,98.5,8,40214,3749.6,37721,12770
4,75,98.5,0,41517,3749.6,37768,12797
4,75,98.5,0,42291,3749.6,37819,12829
4,75,98.5,0,42561,3749.6,37872,12855
4,75,98.5,0,42361,3749.6,37921,12885
4,75,98.5,0,41744,3749.6,37979,12917
4,75,98.5,0,40766,3749.6,38032,12945
4,75,98.5,0,39508,3749.6,38085,12973
4,75,98.5,0,38028,3749.6,38131,13000
4,75,98.5,0,36395,3749.6,38169,13022
4,75,98.5,0,34667,3749.6,38201,13038
4,75,98.5,0,32898,3749.6,38222,13050
4,75,98.5,0,31139,3749.6,38239,13059
4,75,98.5,0,29442,3749.6,38247,13060
4,75,98.5,0,27843,3749.6,38252,13066
4,75,98.5,0,26365,3749.6,38251,13064
4,75,98.5,0,25049,3749.6,38254,13061
4,75,98.5,0,23908,3749.6,38261,13066
4,75,98.5,0,22960,3749.6,38274,13070
4,75,98.5,0,22205,3749.6,38294,13079
4,75,98.5,0,21627,3749.6,38323,13094
4,75,98.5,0,21222,3749.6,38350,13110
4,75,98.5,0,20966,3749.6,38376,13128
4,75,98.5,0,20824,3749.6,38411,13145
4,75,98.5,0,20776,3749.6,38447,13166
4,75,98.5,0,20773,3749.6,38490,13191
4,75,98.5,0,20794,3749.6,38531,13213
4,75,98.5,0,20791,3749.6,38564,13237
4,75,98.5,0,20742,3749.6,38601,13260
4,75,98.5,0,20624,3749.6,38640,13286
4,75,98.5,0,20411,3749.6,38678,13311
4,75,98.5,0,20094,3749.6,38716,13331
4,75,98.5,0,19671,3749.6,38756,13355
4,75,98.5,0,19131,3749.6,38799,13382
4,75,98.5,0,18484,3749.6,38846,13409
4,75,98.5,0,17738,3749.6,38892,13437
4,75,98.5,0,16914,3749.6,38937,13463
4,75,98.5,0,16026,3749.6,38983,13488
4,75,98.5,0,15078,3749.6,39025,13517
4,75,98.5,0,14095,3749.6,39069,13541
4,75,98.5,0,13094,3749.6,39117,13572
4,75,98.5,0,12076,3749.6,39166,13599
4,75,98.5,0,11057,3749.6,39222,13635
4,75,98.5,0,10039,3749.6,39270,13662
4,75,98.5,0,9034,3749.6,39317,13692
4,75,98.5,0,8047,3749.6,39365,13720
4,75,98.5,0,7073,3749.6,39396,13738
4,75,98.5,0,6124,3749.6,39401,13738
4,75,98.5,0,5200,3749.6,39352,13710
4,75,98.5,0,4312,3749.6,39244,13646
4,75,98.5,0,3497,3749.6,39091,13549
4,75,98.5,0,3276,3749.6,38902,13431
4,75,98.5,0,3276,3749.6,38714,13314
4,75,98.5,0,3276,3749.6,38543,13209
4,75,98.5,0,3429,3749.6,38398,13115
4,75,98.5,0,3965,3749.6,38275,13036
4,75,98.5,0,4997,3749.6,38193,12981
4,75,98.5,0,6547,3749.6,38141,12948
4,75,98.5,0,8615,3749.6,38112,12926
4,75,98.5,0,11179,3749.6,38097,12917
4,75,98.5,0,14155,3749.6,38095,12911
4,75,98.5,0,17449,3749.6,38106,12921
4,75,98.5,0,20945,3749.6,38124,12928
4,75,98.5,0,24509,3749.6,38143,12942
4,75,98.5,0,28008,3749.6,38163,12956
4,75,98.5,0,31324,3749.6,38188,12972
4,75,98.5,0,34333,3749.6,38220,12994
4,75,98.5,0,36945,3749.6,38252,13014
4,75,98.5,0,39085,3749.6,38287,13037
4,75,98.5,8,40713,3749.6,38325,13058
4,75,98.5,0,41823,3749.6,38366,13083
4,75,98.5,0,42405,3749.6,38412,13109
4,75,98.5,0,42492,3749.6,38457,13138
4,75,98.5,0,42130,3749.6,38510,13173
4,75,98.5,0,41375,3749.6,38562,13201
4,75,98.5,0,40287,3749.6,38619,13234
4,75,98.5,0,38936,3749.6,38672,13264
4,76,98.3,0,37384,3749.6,38714,13290
4,76,98.3,0,35688,3749.6,38749,13311
4,76,98.3,0,33915,3749.6,38768,13323
4,76,98.3,0,32119,3749.6,38777,13331
4,76,98.3,0,30339,3749.6,38774,13331
4,76,98.3,0,28629,3749.6,38773,13330
4,76,98.3,0,27025,3749.6,38770,13329
4,76,98.3,0,25570,3749.6,38766,13328
4,76,98.3,0,24282,3749.6,38758,13323
4,76,98.3,0,23198,3749.6,38753,13320
4,76,98.3,0,22311,3749.6,38747,13319
4,76,98.3,0,21636,3749.6,38752,13323
4,76,98.3,0,21161,3749.6,38765,13331
4,76,98.3,0,20881,3749.6,38776,13338
4,76,98.3,0,20772,3749.6,38801,13352
4,76,98.3,0,20805,3749.6,38829,13369
4,76,98.3,0,20940,3749.6,38856,13387
4,76,98.3,0,21146,3749.6,38887,13408
4,76,98.3,0,21370,3749.6,38922,13428
4,76,98.3,0,21583,3749.6,38957,13448
4,76,98.3,0,21754,3749.6,38992,13469
4,76,98.3,0,21860,3749.6,39021,13492
4,76,98.3,0,21859,3749.6,39055,13516
4,76,98.3,0,21731,3749.6,39085,13533
4,76,98.3,0,21489,3749.6,39117,13555
4,76,98.3,0,21115,3749.6,39148,13576
4,76,98.3,0,20620,3749.6,39178,13596
4,76,98.3,0,20009,3749.6,39201,13613
4,76,98.3,0,19302,3749.6,39228,13630
4,76,98.3,0,18509,3749.6,39256,13650
4,76,98.3,0,17654,3749.6,39278,13664
4,76,98.3,0,16769,3749.6,39301,13681
4,76,98.3,0,15865,3749.6,39317,13693
4,76,98.3,0,14967,3749.6,39333,13704
4,76,98.3,0,14092,3749.6,39343,13719
4,76,98.3,0,13254,3749.6,39359,13731
4,76,98.3,0,12476,3749.6,39378,13742
4,76,98.3,0,11766,3749.6,39407,13762
4,76,98.3,0,11128,3749.6,39434,13776
4,76,98.3,0,10552,3749.6,39467,13799
4,76,98.3,0,10048,3749.6,39497,13819
4,76,98.3,0,9600,3749.6,39533,13844
4,76,98.3,0,9201,3749.6,39570,13865
4,76,98.3,0,8838,3749.6,39580,13868
4,76,98.3,0,8495,3749.6,39546,13850
4,76,98.3,0,8169,3749.6,39457,13796
4,76,98.3,0,7869,3749.6,39307,13703
4,76,98.3,0,7623,3749.6,39107,13583
4,76,98.3,0,7482,3749.6,38885,13445
4,76,98.3,0,7536,3749.6,38668,13313
4,76,98.3,0,7864,3749.6,38477,13188
4,76,98.3,0,8589,3749.6,38306,13077
4,76,98.3,0,9788,3749.6,38188,12997
4,76,98.3,0,11537,3749.6,38111,12947
4,76,98.3,0,13860,3749.6,38060,12911
4,76,98.3,0,16759,3749.6,38023,12883
4,76,98.3,0,20181,3749.6,38003,12871
4,76,98.3,0,24038,3749.6,37992,12862
4,76,98.3,0,28205,3749.6,37996,12861
4,76,98.3,0,32545,3749.6,38003,12866
4,76,98.3,0,36896,3749.6,38019,12873
4,76,98.3,0,41117,3749.6,38036,12878
4,76,98.3,0,45050,3749.6,38060,12891
4,76,98.3,0,48574,3749.6,38082,12904
4,76,98.3,0,51592,3749.6,38111,12922
4,76,98.3,0,54041,3749.6,38135,12932
4,76,98.3,0,55881,3749.6,38163,12949
4,76,98.3,8,57100,3749.6,38185,12961
4,76,98.3,0,57722,3749.6,38212,12978
4,76,98.3,0,57804,3749.6,38243,12996
4,76,98.3,0,57402,3749.6,38274,13014
4,76,98.3,0,56591,3749.6,38314,13040
4,76,98.3,0,55445,3749.6,38358,13065
4,76,98.3,0,54044,3749.6,38406,13096
4,76,98.3,0,52464,3749.6,38455,13121
4,76,98.3,0,50759,3749.6,38500,13148
4,76,98.3,0,48998,3749.6,38540,13173
4,76,98.3,0,47216,3749.6,38578,13194
4,76,98.3,0,45470,3749.6,38614,13216
4,76,98.3,0,43771,3749.6,38642,13231
4,76,98.3,0,42132,3749.6,38663,13243
4,76,98.3,0,40577,3749.6,38679,13252
4,76,98.3,0,39125,3749.6,38685,13256
4,76,98.3,0,37770,3749.6,38688,13258
4,76,98.3,0,36524,3749.6,38692,13260
4,76,98.3,0,35388,3749.6,38701,13266
4,76,98.3,0,34374,3749.6,38715,13275
4,76,98.3,0,33477,3749.6,38731,13284
4,76,98.3,0,32691,3749.6,38756,13300
4,76,98.3,0,32022,3749.6,38775,13313
4,76,98.3,0,31454,3749.6,38789,13323
4,76,98.3,0,30959,3749.6,38801,13339
4,76,98.3,0,30534,3749.6,38825,13353
4,76,98.3,0,30151,3749.6,38851,13370
4,76,98.3,0,29793,3749.6,38878,13389
4,76,98.3,0,29447,3749.6,38912,13409
4,76,98.3,0,29093,3749.6,38942,13431
4,76,98.3,0,28706,3749.6,38976,13451
4,76,98.3,0,28266,3749.6,39014,13474
4,76,98.3,0,27772,3749.6,39053,13501
4,76,98.3,0,27219,3749.6,39097,13526
4,76,98.3,0,26587,3749.6,39136,13552
4,76,98.3,0,25881,3749.6,39183,13580
4,76,98.3,0,25095,3749.6,39230,13606
4,76,98.3,0,24235,3749.6,39279,13638
4,76,98.3,0,23295,3749.6,39328,13670
4,76,98.3,0,22282,3749.6,39381,13701
4,76,98.3,0,21201,3749.6,39422,13725
4,76,98.3,0,20072,3749.6,39465,13750
4,76,98.3,0,18889,3749.6,39502,13771
4,76,98.3,0,17666,3749.6,39541,13799
4,76,98.3,0,16422,3749.6,39594,13828
4,76,98.3,0,15164,3749.6,39643,13857
4,76,98.3,0,13898,3749.6,39697,13890
4,76,98.3,0,12653,3749.6,39747,13918
4,76,98.3,0,11414,3749.6,39796,13949
4,76,98.3,0,10196,3749.6,39840,13974
4,76,98.3,0,8998,3749.6,39885,14002
4,76,98.3,0,7827,3749.6,39924,14027
4,76,98.3,0,6678,3749.6,39952,14048
4,76,98.3,0,5556,3749.6,39983,14069
4,76,98.3,0,4470,3749.6,40011,14090
4,76,98.3,0,3418,3749.6,40043,14109
4,76,98.3,0,3276,3749.6,40072,14132
4,76,98.3,0,3276,3749.6,40095,14149
4,76,98.3,0,3276,3749.6,40118,14163
4,76,98.3,0,3276,3749.6,40123,14170
4,76,98.3,0,3276,3749.6,40099,14161
4,76,98.3,0,3276,3749.6,40008,14109
4,76,98.3,0,3276,3749.6,39841,14013
4,76,98.3,0,3276,3749.6,39600,13871
4,76,98.3,0,3276,3749.6,39306,13694
4,76,98.3,0,3319,3749.6,39016,13517
4,76,98.3,0,3631,3749.6,38733,13350
4,76,98.3,0,4377,3749.6,38487,13202
4,76,98.3,0,5664,3749.6,38277,13074
4,76,98.3,0,7572,3749.6,38109,12976
4,76,98.3,0,10150,3749.6,38000,12908
4,76,98.3,0,13400,3749.6,37917,12863
4,76,98.3,0,17280,3749.6,37861,12828
4,76,98.3,0,21709,3749.6,37816,12802
4,76,98.3,0,26557,3749.6,37787,12783
4,76,98.3,0,31679,3749.6,37763,12773
4,76,98.3,0,36911,3749.6,37748,12767
4,76,98.3,0,42078,3749.6,37738,12764
4,76,98.3,0,47009,3749.6,37727,12759
4,76,98.3,0,51549,3749.6,37725,12757
4,76,98.3,0,55583,3749.6,37730,12761
4,76,98.3,0,59020,3749.6,37743,12765
4,76,98.3,0,61806,3749.6,37759,12773
4,76,98.3,0,62258,3749.6,37768,12780
4,76,98.3,0,62258,3749.6,37775,12786
4,76,98.3,8,62258,3749.6,37783,12792
4,76,98.3,0,62258,3749.6,37796,12799
4,76,98.3,0,62077,3749.6,37806,12810
4,76,98.3,0,61536,3749.6,37819,12817
4,76,98.3,0,60719,3749.6,37833,12833
4,76,98.3,0,59700,3749.6,37849,12843
4,76,98.3,0,58553,3749.6,37869,12859
4,76,98.3,0,57332,3749.6,37889,12871
4,76,98.3,0,56088,3749.6,37903,12879
4,76,98.3,0,54864,3749.6,37915,12888
4,76,98.3,0,53694,3749.6,37925,12895
4,76,98.3,0,52604,3749.6,37931,12902
4,76,98.3,0,51605,3749.6,37929,12902
4,76,98.3,0,50701,3749.6,37929,12903
4,76,98.3,0,49898,3749.6,37924,12901
4,76,98.3,0,49194,3749.6,37915,12897
4,76,98.3,0,48586,3749.6,37912,12895
4,76,98.3,0,48069,3749.6,37913,12895
4,76,98.3,0,47632,3749.6,37914,12898
4,76,98.3,0,47267,3749.6,37923,12902
4,76,98.3,0,46964,3749.6,37932,12907
4,76,98.3,0,46714,3749.6,37943,12915
4,76,98.3,0,46497,3749.6,37960,12926
4,76,98.3,0,46305,3749.6,37979,12938
4,76,98.3,0,46121,3749.6,37995,12952
4,76,98.3,0,45928,3749.6,38020,12966
4,76,98.3,0,45719,3749.6,38039,12977
4,76,98.3,0,45472,3749.6,38022,12979
4,76,98.3,0,45191,3749.6,37966,12966
4,76,98.3,0,44865,3749.6,37906,12949
4,76,98.3,0,44505,3749.6,37896,12950
4,76,98.3,0,44114,3749.6,37907,12955
4,76,98.3,0,43714,3749.6,37915,12962
4,76,98.3,0,43308,3749.6,37928,12970
4,76,98.3,0,42911,3749.6,37941,12978
4,76,98.3,0,42527,3749.6,37958,12994
4,76,98.3,0,42168,3749.6,37977,13006
4,76,98.3,0,41817,3749.6,38003,13022
4,76,98.3,0,41486,3749.6,38031,13041
4,76,98.3,0,41158,3749.6,38058,13056
4,76,98.3,0,40830,3749.6,38089,13075
4,76,98.3,0,40486,3749.6,38115,13089
4,76,98.3,0,40122,3749.6,38144,13107
4,76,98.3,0,39727,3749.6,38175,13126
4,76,98.3,0,39286,3749.6,38207,13146
4,76,98.3,0,38799,3749.6,38231,13166
4,76,98.3,0,38267,3749.6,38260,13185
4,76,98.3,0,37682,3749.6,38286,13200
4,76,98.2,0,37051,3749.6,38303,13213
4,76,98.2,0,36374,3749.6,38318,13226
4,76,98.2,0,35658,3749.6,38336,13237
4,76,98.2,0,34916,3749.6,38360,13251
4,76,98.2,0,34155,3749.6,38392,13267
4,76,98.2,0,33392,3749.6,38420,13283
4,76,98.2,0,32631,3749.6,38446,13296
4,76,98.2,0,31877,3749.6,38464,13307
4,76,98.2,0,31150,3749.6,38486,13324
4,76,98.2,0,30446,3749.6,38503,13332
4,76,98.2,0,29776,3749.6,38517,13342
4,76,98.2,0,29139,3749.6,38514,13341
4,76,98.2,0,28545,3749.6,38497,13331
4,76,98.2,0,27991,3749.6,38436,13299
4,76,98.2,0,27497,3749.6,38332,13238
4,76,98.2,0,27078,3749.6,38199,13156
4,76,98.2,0,26755,3749.6,38039,13060
4,76,98.2,0,26586,3749.6,37867,12956
4,76,98.2,0,26618,3749.6,37685,12842
4,76,98.2,0,26908,3749.6,37511,12735
4,76,98.2,0,27519,3749.6,37378,12656
4,76,98.2,0,28499,3749.6,37279,12599
4,76,98.2,0,29882,3749.6,37208,12551
4,76,98.2,0,31675,3749.6,37160,12518
4,76,98.2,0,33850,3749.6,37124,12496
4,76,98.2,0,36362,3749.6,37110,12483
4,76,98.2,0,39143,3749.6,37106,12478
4,76,98.2,0,42093,3749.6,37113,12481
4,76,98.2,0,45112,3749.6,37135,12495
4,76,98.2,0,48088,3749.6,37167,12509
4,76,98.2,0,50909,3749.6,37207,12528
4,76,98.2,0,53478,3749.6,37247,12548
4,76,98.2,0,55711,3749.6,37295,12574
4,76,98.2,0,57533,3749.6,37337,12595
4,76,98.2,8,58901,3749.6,37380,12620
4,76,98.2,0,59799,3749.6,37425,12646
4,76,98.2,0,60224,3749.6,37479,12671
4,76,98.2,0,60191,3749.6,37538,12703
4,76,98.2,0,59743,3749.6,37595,12734
4,76,98.2,0,58912,3749.6,37657,12768
4,76,98.2,0,57761,3749.6,37722,12801
4,76,98.2,0,56348,3749.6,37783,12834
4,76,98.2,0,54726,3749.6,37847,12867
4,76,98.2,0,52952,3749.6,37898,12894
4,76,98.2,0,51084,3749.6,37938,12916
4,76,98.2,0,49161,3749.6,37974,12936
4,76,98.2,0,47227,3749.6,38001,12952
4,76,98.2,0,45339,3749.6,38016,12961
4,76,98.2,0,43516,3749.6,38024,12963
4,76,98.2,0,41790,3749.6,38027,12966
4,76,98.2,0,40189,3749.6,38021,12960
4,76,98.2,0,38737,3749.6,38016,12960
4,76,98.2,0,37441,3749.6,38014,12965
4,76,98.2,0,36317,3749.6,38019,12966
4,76,98.2,0,35377,3749.6,38028,12974
4,76,98.2,0,34610,3749.6,38044,12983
4,76,98.2,0,34007,3749.6,38063,12992
4,76,98.2,0,33552,3749.6,38085,13005
4,76,98.2,0,33225,3749.6,38109,13019
4,76,98.2,0,33005,3749.6,38128,13033
4,76,98.2,0,32854,3749.6,38156,13047
4,76,98.2,0,32745,3749.6,38186,13068
4,76,98.2,0,32653,3749.6,38217,13088
4,76,98.2,0,32549,3749.6,38254,13111
4,76,98.2,0,32402,3749.6,38295,13132
4,76,98.2,0,32193,3749.6,38333,13158
4,76,98.2,0,31913,3749.6,38368,13179
4,76,98.2,0,31538,3749.6,38408,13205
4,76,98.2,0,31074,3749.6,38450,13229
4,76,98.2,0,30510,3749.6,38496,13255
4,76,98.2,0,29844,3749.6,38535,13279
4,76,98.2,0,29093,3749.6,38581,13304
4,76,98.2,0,28262,3749.6,38625,13330
4,76,98.2,0,27351,3749.6,38666,13355
4,76,98.2,0,26382,3749.6,38708,13381
4,76,98.2,0,25366,3749.6,38746,13406
4,76,98.2,0,24320,3749.6,38781,13427
4,76,98.2,0,23254,3749.6,38816,13452
4,76,98.2,0,22181,3749.6,38844,13470
4,76,98.2,0,21117,3749.6,38865,13485
4,76,98.2,0,20069,3749.6,38890,13503
4,76,98.2,0,19046,3749.6,38916,13527
4,76,98.2,0,18068,3749.6,38935,13539
4,76,98.2,0,17139,3749.6,38955,13553
4,76,98.2,0,16254,3749.6,38974,13569
4,76,98.2,0,15431,3749.6,38991,13580
4,76,98.2,0,14669,3749.6,39006,13589
4,76,98.2,0,13974,3749.6,39003,13599
4,76,98.2,0,13341,3749.6,38992,13599
4,76,98.2,0,12782,3749.6,38958,13581
4,76,98.2,0,12301,3749.6,38897,13546
4,76,98.2,0,11899,3749.6,38784,13476
4,76,98.2,0,11611,3749.6,38626,13375
4,76,98.2,0,11458,3749.6,38444,13267
4,76,98.2,0,11508,3749.6,38256,13149
4,76,98.2,0,11819,3749.6,38064,13030
4,76,98.2,0,12457,3749.6,37881,12917
4,76,98.2,0,13486,3749.6,37737,12829
4,76,98.2,0,14974,3749.6,37632,12764
4,76,98.2,0,16939,3749.6,37551,12716
4,76,98.2,0,19388,3749.6,37494,12685
4,76,98.2,0,22284,3749.6,37453,12657
4,76,98.2,0,25573,3749.6,37430,12641
4,76,98.2,0,29155,3749.6,37415,12634
4,76,98.2,0,32927,3749.6,37410,12633
4,76,98.2,0,36770,3749.6,37408,12630
4,76,98.2,0,40545,3749.6,37412,12631
4,76,98.2,0,44133,3749.6,37421,12638
4,76,98.2,0,47422,3749.6,37428,12642
4,76,98.2,0,50323,3749.6,37438,12649
4,76,98.2,0,52764,3749.6,37447,12655
4,76,98.2,0,54711,3749.6,37456,12661
4,76,98.2,8,56144,3749.6,37460,12667
4,76,98.2,0,57081,3749.6,37466,12667
4,76,98.2,0,57544,3749.6,37463,12674
4,76,98.2,0,57587,3749.6,37460,12676
4,76,98.2,0,57260,3749.6,37460,12681
4,76,98.2,0,56645,3749.6,37471,12688
4,76,98.2,0,55801,3749.6,37503,12704
4,76,98.2,0,54801,3749.6,37531,12720
4,76,98.2,0,53714,3749.6,37558,12735
4,76,98.2,0,52576,3749.6,37580,12751
4,76,98.2,0,51444,3749.6,37603,12762
4,76,98.2,0,50340,3749.6,37620,12774
4,76,98.2,0,49282,3749.6,37629,12781
4,76,98.2,0,48282,3749.6,37633,12786
4,76,98.2,0,47350,3749.6,37631,12787
4,76,98.2,0,46499,3749.6,37629,12786
4,76,98.2,0,45728,3749.6,37630,12785
4,76,98.2,0,45026,3749.6,37627,12781
4,76,98.2,0,44404,3749.6,37626,12784
4,76,98.2,0,43858,3749.6,37632,12786
4,76,98.2,0,43380,3749.6,37636,12792
4,76,98.2,0,42966,3749.6,37649,12797
4,76,98.2,0,42610,3749.6,37673,12809
4,76,98.2,0,42300,3749.6,37706,12823
4,76,98.2,0,42031,3749.6,37746,12844
4,76,98.2,0,41784,3749.6,37795,12872
4,76,98.2,0,41537,3749.6,37861,12903
4,76,98.2,0,41260,3749.6,37939,12944
4,76,98.2,0,40935,3749.6,38029,12984
4,76,98.2,0,40544,3749.6,38110,13023
4,76,98.2,0,40052,3749.6,38189,13067
4,76,98.2,0,39427,3749.6,38262,13103
4,76,98.2,0,38658,3749.6,38327,13141
4,76,98.2,0,37732,3749.6,38387,13170
4,76,98.2,0,36636,3749.6,38447,13210
4,76,98.2,0,35387,3749.6,38507,13245
4,76,98.2,0,33983,3749.6,38559,13275
4,76,98.2,0,32449,3749.6,38612,13305
4,76,98.2,0,30794,3749.6,38660,13336
4,76,98.2,0,29061,3749.6,38712,13366
4,76,98.2,0,27268,3749.6,38767,13400
4,76,98.2,0,25452,3749.6,38817,13431
4,76,98.2,0,23644,3749.6,38875,13462
4,76,98.2,0,21857,3749.6,38926,13494
4,76,98.2,0,20114,3749.6,38979,13522
4,76,98.2,0,18431,3749.6,39026,13553
4,76,98.2,0,16818,3749.6,39070,13582
4,76,98.2,0,15289,3749.6,39112,13609
4,76,98.2,0,13839,3749.6,39156,13638
4,76,98.2,0,12480,3749.6,39197,13662
4,76,98.2,0,11195,3749.6,39234,13685
4,76,98.2,0,9989,3749.6,39267,13709
4,76,98.2,0,8857,3749.6,39304,13732
4,76,98.2,0,7799,3749.6,39344,13758
4,76,98.2,0,6804,3749.6,39383,13777
4,76,98.2,0,5864,3749.6,39407,13796
4,76,98.2,0,4975,3749.6,39397,13791
4,76,98.2,0,4149,3749.6,39340,13754
4,76,98.2,0,3391,3749.6,39216,13683
4,76,98.2,0,3276,3749.6,39039,13574
4,76,98.2,0,3276,3749.6,38825,13442
4,76,98.2,0,3276,3749.6,38600,13305
4,76,98.2,0,3323,3749.6,38385,13174
4,76,98.2,0,3689,3749.6,38197,13059
4,76,98.2,0,4531,3749.6,38044,12963
4,76,98.2,0,5918,3749.6,37933,12898
4,76,98.2,0,7896,3749.6,37854,12851
4,76,98.2,0,10460,3749.6,37795,12815
4,76,98.2,0,13582,3749.6,37754,12791
4,76,98.2,0,17189,3749.6,37723,12774
4,76,98.2,0,21166,3749.6,37713,12767
4,76,98.2,0,25391,3749.6,37717,12766
4,76,98.2,0,29714,3749.6,37720,12770
4,76,98.2,0,33994,3749.6,37727,12775
4,76,98.2,0,38077,3749.6,37741,12780
4,76,98.2,0,41848,3749.6,37754,12791
4,76,98.2,0,45184,3749.6,37769,12804
4,76,98.2,0,48006,3749.6,37782,12813
4,76,98.2,0,50264,3749.6,37798,12823
4,76,98.2,8,51931,3749.6,37816,12833
4,76,98.2,0,53020,3749.6,37832,12844
4,76,98.2,0,53565,3749.6,37859,12861
4,76,98.2,0,53612,3749.6,37882,12878
4,76,98.2,0,53222,3749.6,37911,12899
4,76,98.2,0,52476,3749.6,37938,12917
4,76,98.2,0,51446,3749.6,37971,12936
4,76,98.2,0,50202,3749.6,38002,12955
4,76,98.2,0,48808,3749.6,38028,12974
4,77,98.1,0,47343,3749.6,38057,12988
4,77,98.1,0,45846,3749.6,38075,13001
4,77,98.1,0,44358,3749.6,38092,13012
4,77,98.1,0,42922,3749.6,38095,13016
4,77,98.1,0,41567,3749.6,38098,13020
4,77,98.1,0,40317,3749.6,38097,13022
4,77,98.1,0,39177,3749.6,38103,13025
4,77,98.1,0,38166,3749.6,38107,13026
4,77,98.1,0,37285,3749.6,38118,13032
4,77,98.1,0,36533,3749.6,38130,13040
4,77,98.1,0,35906,3749.6,38148,13048
4,77,98.1,0,35392,3749.6,38167,13058
4,77,98.1,0,34978,3749.6,38176,13067
4,77,98.1,0,34643,3749.6,38190,13077
4,77,98.1,0,34366,3749.6,38208,13089
4,77,98.1,0,34138,3749.6,38226,13106
4,77,98.1,0,33927,3749.6,38257,13123
4,77,98.1,0,33715,3749.6,38285,13138
4,77,98.1,0,33490,3749.6,38321,13163
4,77,98.1,0,33228,3749.6,38354,13181
4,77,98.1,0,32915,3749.6,38384,13199
4,77,98.1,0,32533,3749.6,38418,13221
4,77,98.1,0,32075,3749.6,38451,13244
4,77,98.1,0,31542,3749.6,38488,13263
4,77,98.1,0,30926,3749.6,38527,13288
4,77,98.1,0,30233,3749.6,38563,13308
4,77,98.1,0,29457,3749.6,38603,13332
4,77,98.1,0,28616,3749.6,38634,13353
4,77,98.1,0,27723,3749.6,38669,13371
4,77,98.1,0,26770,3749.6,38700,13390
4,77,98.1,0,25790,3749.6,38739,13418
4,77,98.1,0,24783,3749.6,38776,13437
4,77,98.1,0,23754,3749.6,38824,13465
4,77,98.1,0,22724,3749.6,38869,13494
4,77,98.1,0,21691,3749.6,38910,13518
4,77,98.1,0,20663,3749.6,38952,13542
4,77,98.1,0,19646,3749.6,38997,13567
4,77,98.1,0,18634,3749.6,39043,13597
4,77,98.1,0,17627,3749.6,39092,13622
4,77,98.1,0,16632,3749.6,39140,13652
4,77,98.1,0,15642,3749.6,39191,13685
4,77,98.1,0,14659,3749.6,39245,13714
4,77,98.1,0,13669,3749.6,39300,13747
4,77,98.1,0,12679,3749.6,39350,13772
4,77,98.1,0,11676,3749.6,39396,13802
4,77,98.1,0,10661,3749.6,39452,13832
4,77,98.1,0,9627,3749.6,39501,13860
4,77,98.1,0,8582,3749.6,39545,13886
4,77,98.1,0,7525,3749.6,39564,13895
4,77,98.1,0,6462,3749.6,39545,13884
4,77,98.1,0,5414,3749.6,39461,13838
4,77,98.1,0,4399,3749.6,39309,13749
4,77,98.1,0,3475,3749.6,39105,13625
4,77,98.1,0,3276,3749.6,38881,13486
4,77,98.1,0,3276,3749.6,38653,13346
4,77,98.1,0,3282,3749.6,38447,13217
4,77,98.1,0,3606,3749.6,38269,13111
4,77,98.1,0,4491,3749.6,38130,13018
4,77,98.1,0,6015,3749.6,38025,12953
4,77,98.1,0,8209,3749.6,37952,12908
4,77,98.1,0,11061,3749.6,37902,12876
4,77,98.1,0,14531,3749.6,37873,12858
4,77,98.1,0,18504,3749.6,37863,12853
4,77,98.1,0,22868,3749.6,37868,12852
4,77,98.1,0,27462,3749.6,37880,12858
4,77,98.1,0,32133,3749.6,37902,12869
4,77,98.1,0,36703,3749.6,37927,12887
4,77,98.1,0,41009,3749.6,37957,12904
4,77,98.1,0,44904,3749.6,37992,12924
4,77,98.1,0,48272,3749.6,38030,12944
4,77,98.1,0,51024,3749.6,38066,12966
4,77,98.1,0,53107,3749.6,38105,12989
4,77,98.1,8,54508,3749.6,38148,13012
4,77,98.1,0,55239,3749.6,38187,13039
4,77,98.1,0,55342,3749.6,38230,13063
4,77,98.1,0,54881,3749.6,38280,13092
4,77,98.1,0,53923,3749.6,38323,13120
4,77,98.1,0,52562,3749.6,38371,13146
4,77,98.1,0,50889,3749.6,38414,13170
4,77,98.1,0,48986,3749.6,38461,13198
4,77,98.1,0,46938,3749.6,38508,13221
4,77,98.1,0,44818,3749.6,38550,13248
4,77,98.1,0,42689,3749.6,38589,13265
4,77,98.1,0,40600,3749.6,38620,13283
4,77,98.1,0,38599,3749.6,38636,13294
4,77,98.1,0,36718,3749.6,38650,13302
4,77,98.1,0,34982,3749.6,38651,13306
4,77,98.1,0,33404,3749.6,38649,13305
4,77,98.1,0,32003,3749.6,38646,13305
4,77,98.1,0,30780,3749.6,38645,13304
4,77,98.1,0,29743,3749.6,38643,13305
4,77,98.1,0,28880,3749.6,38647,13307
4,77,98.1,0,28193,3749.6,38661,13320
4,77,98.1,0,27663,3749.6,38674,13326
4,77,98.1,0,27278,3749.6,38686,13336
4,77,98.1,0,27013,3749.6,38694,13346
4,77,98.1,0,26857,3749.6,38705,13357
4,77,98.1,0,26770,3749.6,38732,13373
4,77,98.1,0,26722,3749.6,38768,13393
4,77,98.1,0,26687,3749.6,38806,13412
4,77,98.2,0,26633,3749.6,38851,13439
4,77,98.2,0,26539,3749.6,38890,13467
4,77,98.2,0,26387,3749.6,38923,13489
4,77,98.2,0,26151,3749.6,38958,13511
4,77,98.2,0,25810,3749.6,38994,13535
4,77,98.2,0,25352,3749.6,39030,13556
4,77,98.2,0,24781,3749.6,39060,13578
4,77,98.2,0,24099,3749.6,39096,13600
4,77,98.2,0,23312,3749.6,39133,13624
4,77,98.2,0,22431,3749.6,39169,13646
4,77,98.2,0,21464,3749.6,39207,13668
4,77,98.2,0,20436,3749.6,39243,13692
4,77,98.2,0,19367,3749.6,39278,13715
4,77,98.2,0,18265,3749.6,39308,13738
4,77,98.2,0,17155,3749.6,39335,13757
4,77,98.2,0,16044,3749.6,39363,13775
4,77,98.2,0,14945,3749.6,39391,13792
4,77,98.2,0,13879,3749.6,39423,13812
4,77,98.2,0,12846,3749.6,39443,13828
4,77,98.2,0,11859,3749.6,39468,13847
4,77,98.2,0,10925,3749.6,39503,13868
4,77,98.2,0,10044,3749.6,39540,13892
4,77,98.2,0,9223,3749.6,39572,13913
4,77,98.2,0,8455,3749.6,39605,13935
4,77,98.2,0,7735,3749.6,39628,13949
4,77,98.2,0,7061,3749.6,39629,13948
4,77,98.2,0,6415,3749.6,39576,13915
4,77,98.2,0,5815,3749.6,39462,13845
4,77,98.2,0,5289,3749.6,39295,13742
4,77,98.2,0,4883,3749.6,39089,13615
4,77,98.2,0,4669,3749.6,38870,13482
4,77,98.2,0,4732,3749.6,38667,13356
4,77,98.2,0,5172,3749.6,38482,13243
4,77,98.2,0,6106,3749.6,38329,13149
4,77,98.2,0,7601,3749.6,38212,13075
4,77,98.2,0,9721,3749.6,38137,13026
4,77,98.2,0,12462,3749.6,38096,12997
4,77,98.2,0,15812,3749.6,38074,12986
4,77,98.2,0,19688,3749.6,38073,12982
4,77,98.2,0,23974,3749.6,38077,12985
4,77,98.2,0,28530,3749.6,38092,12995
4,77,98.2,0,33187,3749.6,38115,13008
4,77,98.2,0,37767,3749.6,38142,13027
4,77,98.2,0,42107,3749.6,38177,13046
4,77,98.2,0,46053,3749.6,38212,13071
4,77,98.2,0,49476,3749.6,38247,13090
4,77,98.2,0,52277,3749.6,38283,13114
4,77,98.2,8,54401,3749.6,38316,13139
4,77,98.2,0,55820,3749.6,38352,13158
4,77,98.2,0,56547,3749.6,38392,13187
4,77,98.2,0,56610,3749.6,38433,13214
4,77,98.2,0,56075,3749.6,38478,13242
4,77,98.2,0,55024,3749.6,38521,13272
4,77,98.2,0,53544,3749.6,38561,13295
4,77,98.2,0,51727,3749.6,38593,13318
4,77,98.2,0,49668,3749.6,38619,13338
4,77,98.2,0,47445,3749.6,38638,13349
4,77,98.2,0,45147,3749.6,38644,13355
4,77,98.2,0,42851,3749.6,38639,13354
4,77,98.2,0,40632,3749.6,38626,13355
4,77,98.2,0,38549,3749.6,38606,13348
4,77,98.2,0,36644,3749.6,38575,13334
4,77,98.2,0,34957,3749.6,38550,13319
4,77,98.2,0,33530,3749.6,38521,13303
4,77,98.2,0,32378,3749.6,38494,13291
4,77,98.2,0,31522,3749.6,38470,13278
4,77,98.2,0,30957,3749.6,38448,13270
4,77,98.2,0,30686,3749.6,38428,13264
4,77,98.2,0,30669,3749.6,38420,13261
4,77,98.2,0,30878,3749.6,38390,13254
4,77,98.2,0,31289,3749.6,38346,13240
4,77,98.2,0,31854,3749.6,38280,13219
4,77,98.2,0,32538,3749.6,38266,13215
4,77,98.2,0,33302,3749.6,38265,13215
4,77,98.2,0,34117,3749.6,38268,13221
4,77,98.2,0,34949,3749.6,38276,13230
4,77,98.2,0,35757,3749.6,38284,13236
4,77,98.2,0,36503,3749.6,38299,13250
4,77,98.2,0,37169,3749.6,38317,13258
4,77,98.2,0,37717,3749.6,38328,13264
4,77,98.2,0,38140,3749.6,38343,13275
4,77,98.2,0,38416,3749.6,38360,13286
4,77,98.2,0,38545,3749.6,38375,13299
4,77,98.2,0,38526,3749.6,38384,13305
4,77,98.2,0,38365,3749.6,38404,13318
4,77,98.2,0,38062,3749.6,38417,13325
4,77,98.2,0,37638,3749.6,38428,13335
4,77,98.2,0,37113,3749.6,38443,13350
4,77,98.2,0,36507,3749.6,38461,13358
4,77,98.2,0,35836,3749.6,38481,13370
4,77,98.2,0,35112,3749.6,38502,13385
4,77,98.2,0,34372,3749.6,38519,13398
4,77,98.2,0,33607,3749.6,38541,13411
4,77,98.2,0,32839,3749.6,38562,13424
4,77,98.2,0,32082,3749.6,38584,13440
4,77,98.2,0,31330,3749.6,38600,13452
4,77,98.2,0,30597,3749.6,38603,13456
4,77,98.2,0,29876,3749.6,38578,13440
4,77,98.2,0,29181,3749.6,38513,13404
4,77,98.2,0,28528,3749.6,38409,13344
4,77,98.2,0,27938,3749.6,38276,13265
4,77,98.2,0,27471,3749.6,38130,13176
4,77,98.2,0,27192,3749.6,37972,13077
4,77,98.2,0,27169,3749.6,37811,12974
4,77,98.2,0,27489,3749.6,37655,12879
4,77,98.2,0,28244,3749.6,37542,12811
4,77,98.2,0,29494,3749.6,37463,12762
4,77,98.2,0,31279,3749.6,37405,12725
4,77,98.2,0,33601,3749.6,37367,12700
4,77,98.2,0,36428,3749.6,37346,12687
4,77,98.2,0,39686,3749.6,37334,12678
4,77,98.2,0,43271,3749.6,37335,12679
4,77,98.2,0,47055,3749.6,37348,12685
4,77,98.2,0,50894,3749.6,37360,12695
4,77,98.2,0,54637,3749.6,37384,12710
4,77,98.2,0,58156,3749.6,37411,12724
4,77,98.2,0,61306,3749.6,37439,12743
4,77,98.2,0,62258,3749.6,37475,12765
4,77,98.2,8,62258,3749.6,37509,12783
4,77,98.2,0,62258,3749.6,37539,12802
4,77,98.2,0,62258,3749.6,37572,12826
4,77,98.2,0,62258,3749.6,37613,12845
4,77,98.2,0,62089,3749.6,37653,12876
4,77,98.2,0,61503,3749.6,37689,12897
4,77,98.2,0,60550,3749.6,37720,12920
4,77,98.2,0,59283,3749.6,37752,12936
4,77,98.2,0,57777,3749.6,37775,12950
4,77,98.2,0,56097,3749.6,37784,12959
4,77,98.2,0,54297,3749.6,37794,12967
4,77,98.2,0,52455,3749.6,37793,12968
4,77,98.2,0,50619,3749.6,37785,12963
4,77,98.2,0,48855,3749.6,37777,12959
4,77,98.2,0,47206,3749.6,37767,12955
4,77,98.2,0,45706,3749.6,37752,12947
4,77,98.2,0,44387,3749.6,37742,12943
4,77,98.2,0,43273,3749.6,37735,12940
4,77,98.2,0,42370,3749.6,37729,12935
4,77,98.2,0,41680,3749.6,37735,12940
4,77,98.2,0,41196,3749.6,37734,12940
4,77,98.2,0,40896,3749.6,37742,12943
4,77,98.2,0,40754,3749.6,37758,12953
4,77,98.2,0,40741,3749.6,37773,12964
4,77,98.2,0,40814,3749.6,37798,12976
4,77,98.2,0,40949,3749.6,37823,12990
4,77,98.2,0,41097,3749.6,37850,13009
4,77,98.2,0,41232,3749.6,37875,13024
4,77,98.2,0,41312,3749.6,37901,13040
4,77,98.2,0,41306,3749.6,37929,13060
4,77,98.2,0,41200,3749.6,37955,13075
4,77,98.2,0,40975,3749.6,37982,13091
4,77,98.2,0,40626,3749.6,38010,13109
4,77,98.2,0,40151,3749.6,38036,13126
4,77,98.2,0,39555,3749.6,38062,13141
4,77,98.2,0,38840,3749.6,38089,13160
4,77,98.2,0,38041,3749.6,38112,13173
4,77,98.2,0,37158,3749.6,38137,13190
4,77,98.2,0,36209,3749.6,38154,13202
4,77,98.2,0,35213,3749.6,38174,13214
4,77,98.2,0,34201,3749.6,38197,13231
4,77,98.2,0,33178,3749.6,38221,13249
4,77,98.2,0,32171,3749.6,38247,13264
4,77,98.2,0,31192,3749.6,38267,13276
4,77,98.2,0,30247,3749.6,38290,13290
4,77,98.2,0,29344,3749.6,38315,13306
4,77,98.2,0,28488,3749.6,38339,13324
4,77,98.2,0,27675,3749.6,38366,13341
4,77,98.2,0,26911,3749.6,38388,13355
4,77,98.2,0,26190,3749.6,38411,13372
4,77,98.2,0,25492,3749.6,38424,13376
4,77,98.2,0,24832,3749.6,38411,13370
4,77,98.2,0,24202,3749.6,38357,13341
4,77,98.2,0,23609,3749.6,38255,13282
4,77,98.2,0,23074,3749.6,38119,13201
4,77,98.2,0,22634,3749.6,37961,13102
4,77,98.2,0,22349,3749.6,37789,13000
4,77,98.2,0,22290,3749.6,37615,12890
4,77,98.2,0,22530,3749.6,37446,12782
4,77,98.2,0,23160,3749.6,37316,12704
4,77,98.2,0,24254,3749.6,37221,12643
4,77,98.2,0,25853,3749.6,37142,12593
4,77,98.2,0,27965,3749.6,37087,12560
4,77,98.2,0,30587,3749.6,37045,12536
4,77,98.2,0,33652,3749.6,37018,12520
4,77,98.2,0,37083,3749.6,37004,12507
4,77,98.2,0,40761,3749.6,37000,12506
4,77,98.2,0,44559,3749.6,37006,12510
4,77,98.2,0,48343,3749.6,37013,12514
4,77,98.2,0,51964,3749.6,37028,12519
4,77,98.2,0,55315,3749.6,37049,12533
4,77,98.2,0,58288,3749.6,37066,12543
4,77,98.2,0,60802,3749.6,37083,12555
4,77,98.2,8,62258,3749.6,37104,12565
4,77,98.2,0,62258,3749.6,37123,12579
4,77,98.2,0,62258,3749.6,37145,12591
4,77,98.2,0,62258,3749.6,37169,12607
4,77,98.2,0,62175,3749.6,37195,12623
4,77,98.2,0,61706,3749.6,37217,12638
4,77,98.2,0,60912,3749.6,37246,12656
4,77,98.2,0,59852,3749.6,37269,12671
4,77,98.2,0,58598,3749.6,37290,12687
4,78,98.2,0,57197,3749.6,37312,12697
4,78,98.2,0,55719,3749.6,37323,12704
4,78,98.2,0,54208,3749.6,37329,12711
4,78,98.2,0,52714,3749.6,37334,12714
4,78,98.2,0,51274,3749.6,37331,12717
4,78,98.2,0,49917,3749.6,37328,12713
4,78,98.2,0,48666,3749.6,37325,12713
4,78,98.2,0,47552,3749.6,37317,12708
4,78,98.2,0,46575,3749.6,37315,12708
4,78,98.2,0,45751,3749.6,37315,12707
4,78,98.2,0,45071,3749.6,37318,12707
4,78,98.2,0,44527,3749.6,37323,12710
4,78,98.2,0,44115,3749.6,37334,12718
4,78,98.2,0,43810,3749.6,37342,12725
4,78,98.2,0,43601,3749.6,37363,12735
4,78,98.2,0,43464,3749.6,37385,12750
4,78,98.2,0,43362,3749.6,37407,12763
4,78,98.2,0,43285,3749.6,37433,12778
4,78,98.2,0,43190,3749.6,37460,12794
4,78,98.2,0,43064,3749.6,37486,12808
4,78,98.2,0,42883,3749.6,37514,12827
4,78,98.2,0,42623,3749.6,37547,12848
4,78,98.2,0,42283,3749.6,37576,12864
4,78,98.2,0,41845,3749.6,37605,12882
4,78,98.2,0,41314,3749.6,37636,12899
4,78,98.2,0,40690,3749.6,37670,12921
4,78,98.2,0,39974,3749.6,37697,12938
4,78,98.2,0,39175,3749.6,37725,12957
4,78,98.2,0,38301,3749.6,37751,12975
4,78,98.2,0,37375,3749.6,37779,12990
4,78,98.2,0,36397,3749.6,37804,13007
4,78,98.2,0,35385,3749.6,37829,13019
4,78,98.2,0,34363,3749.6,37857,13038
4,78,98.2,0,33337,3749.6,37879,13056
4,78,98.2,0,32314,3749.6,37901,13068
4,78,98.2,0,31317,3749.6,37924,13083
4,78,98.2,0,30355,3749.6,37953,13101
4,78,98.2,0,29420,3749.6,37984,13119
4,78,98.2,0,28533,3749.6,38010,13136
4,78,98.2,0,27674,3749.6,38035,13150
4,78,98.2,0,26862,3749.6,38053,13160
4,78,98.2,0,26086,3749.6,38056,13162
4,78,98.2,0,25352,3749.6,38021,13146
4,78,98.2,0,24661,3749.6,37946,13103
4,78,98.2,0,24025,3749.6,37834,13034
4,78,98.2,0,23475,3749.6,37692,12948
4,78,98.2,0,23058,3749.6,37535,12848
4,78,98.2,0,22836,3749.6,37367,12746
4,78,98.2,0,22880,3749.6,37200,12640
4,78,98.2,0,23261,3749.6,37064,12558
4,78,98.2,0,24050,3749.6,36966,12498
4,78,98.2,0,25305,3749.6,36890,12449
4,78,98.2,0,27042,3749.6,36830,12413
4,78,98.2,0,29263,3749.6,36783,12382
4,78,98.2,0,31922,3749.6,36754,12365
4,78,98.2,0,34955,3749.6,36734,12352
4,78,98.2,0,38263,3749.6,36721,12348
4,78,98.2,0,41734,3749.6,36722,12351
4,78,98.2,0,45245,3749.6,36727,12352
4,78,98.2,0,48663,3749.6,36740,12356
4,78,98.2,0,51871,3749.6,36758,12366
4,78,98.2,0,54769,3749.6,36777,12379
4,78,98.2,0,57266,3749.6,36797,12392
4,78,98.2,0,59307,3749.6,36823,12405
4,78,98.2,8,60856,3749.6,36849,12425
4,78,98.2,0,61891,3749.6,36876,12440
4,78,98.2,0,62258,3749.6,36907,12458
4,78,98.2,0,62239,3749.6,36940,12478
4,78,98.2,0,61880,3749.6,36977,12500
4,78,98.2,0,61151,3749.6,37013,12522
4,78,98.2,0,60103,3749.6,37045,12541
4,78,98.2,0,58807,3749.6,37076,12560
4,78,98.2,0,57314,3749.6,37103,12576
4,78,98.2,0,55688,3749.6,37122,12587
4,78,98.2,0,53993,3749.6,37133,12595
4,78,98.2,0,52272,3749.6,37142,12601
4,78,98.2,0,50576,3749.6,37147,12605
4,78,98.2,0,48944,3749.6,37150,12602
4,78,98.2,0,47414,3749.6,37148,12604
4,78,98.2,0,46005,3749.6,37149,12603
4,78,98.2,0,44748,3749.6,37152,12608
4,78,98.2,0,43652,3749.6,37159,12607
4,78,98.2,0,42721,3749.6,37166,12611
4,78,98.2,0,41963,3749.6,37171,12613
4,78,98.2,0,41359,3749.6,37176,12620
4,78,98.2,0,40891,3749.6,37182,12623
4,78,98.2,0,40538,3749.6,37191,12628
4,78,98.2,0,40289,3749.6,37206,12638
4,78,98.2,0,40117,3749.6,37218,12644
4,78,98.2,0,39991,3749.6,37236,12657
4,78,98.2,0,39884,3749.6,37251,12665
4,78,98.2,0,39783,3749.6,37268,12679
4,78,98.2,0,39663,3749.6,37284,12688
4,78,98.2,0,39502,3749.6,37306,12700
4,78,98.2,0,39289,3749.6,37329,12718
4,78,98.2,0,39008,3749.6,37350,12729
4,78,98.2,0,38668,3749.6,37374,12745
4,78,98.2,0,38254,3749.6,37400,12761
4,78,98.2,0,37766,3749.6,37429,12776
4,78,98.2,0,37203,3749.6,37457,12795
4,79,98.2,0,36572,3749.6,37492,12817
4,79,98.2,0,35886,3749.6,37524,12835
4,79,98.2,0,35130,3749.6,37555,12855
4,79,98.2,0,34325,3749.6,37590,12874
4,79,98.2,0,33484,3749.6,37622,12895
4,79,98.2,0,32592,3749.6,37649,12914
4,79,98.2,0,31677,3749.6,37680,12933
4,79,98.2,0,30732,3749.6,37715,12950
4,79,98.2,0,29762,3749.6,37747,12972
4,79,98.2,0,28770,3749.6,37780,12990
4,79,98.2,0,27774,3749.6,37818,13012
4,79,98.2,0,26775,3749.6,37851,13034
4,79,98.2,0,25774,3749.6,37873,13048
4,79,98.2,0,24777,3749.6,37871,13046
4,79,98.2,0,23791,3749.6,37830,13022
4,79,98.2,0,22837,3749.6,37752,12975
4,79,98.2,0,21936,3749.6,37636,12904
4,79,98.2,0,21136,3749.6,37498,12823
4,79,98.2,0,20499,3749.6,37346,12728
4,79,98.2,0,20087,3749.6,37188,12629
4,79,98.2,0,20004,3749.6,37038,12534
4,79,98.2,0,20320,3749.6,36926,12462
4,79,98.2,0,21096,3749.6,36845,12407
4,79,98.2,0,22384,3749.6,36782,12368
4,79,98.2,0,24212,3749.6,36736,12337
4,79,98.2,0,26548,3749.6,36707,12320
4,79,98.2,0,29348,3749.6,36690,12305
4,79,98.2,0,32517,3749.6,36683,12302
4,79,98.2,0,35956,3749.6,36677,12301
4,79,98.2,0,39531,3749.6,36679,12302
4,79,98.2,0,43115,3749.6,36693,12311
4,79,98.2,0,46565,3749.6,36707,12323
4,79,98.2,0,49768,3749.6,36726,12331
4,79,98.2,0,52610,3749.6,36751,12346
4,79,98.2,0,55018,3749.6,36779,12364
4,79,98.2,0,56929,3749.6,36809,12383
4,79,98.2,8,58307,3749.6,36843,12403
4,79,98.2,0,59152,3749.6,36880,12423
4,79,98.2,0,59472,3749.6,36917,12448
4,79,98.2,0,59295,3749.6,36962,12473
4,79,98.2,0,58685,3749.6,37009,12497
4,79,98.2,0,57691,3749.6,37044,12521
4,79,98.2,0,56376,3749.6,37081,12544
4,79,98.2,0,54811,3749.6,37111,12559
4,79,98.2,0,53056,3749.6,37131,12571
4,79,98.2,0,51176,3749.6,37131,12572
4,79,98.2,0,49239,3749.6,37122,12570
4,79,98.2,0,47314,3749.6,37108,12563
4,79,98.2,0,45444,3749.6,37092,12554
4,79,98.2,0,43690,3749.6,37069,12542
4,79,98.2,0,42096,3749.6,37055,12536
4,79,98.2,0,40703,3749.6,37037,12525
4,79,98.2,0,39540,3749.6,37027,12518
4,79,98.2,0,38629,3749.6,37018,12512
4,79,98.2,0,37971,3749.6,37019,12512
4,79,98.2,0,37553,3749.6,37022,12516
4,79,98.2,0,37362,3749.6,37029,12521
4,79,98.2,0,37370,3749.6,37040,12526
4,79,98.2,0,37542,3749.6,37052,12531
4,79,98.2,0,37829,3749.6,37065,12541
4,79,98.2,0,38188,3749.6,37084,12553
4,79,98.2,0,38570,3749.6,37106,12566
4,79,98.2,0,38939,3749.6,37136,12583
4,79,98.2,0,39244,3749.6,37164,12598
4,79,98.2,0,39456,3749.6,37197,12616
4,79,98.2,0,39539,3749.6,37230,12634
4,79,98.2,0,39484,3749.6,37261,12656
4,79,98.2,0,39270,3749.6,37293,12673
4,79,98.2,0,38895,3749.6,37318,12690
4,79,98.2,0,38359,3749.6,37347,12704
4,79,98.2,0,37669,3749.6,37371,12721
4,79,98.2,0,36846,3749.6,37401,12740
4,79,98.2,0,35903,3749.6,37429,12760
4,79,98.2,0,34861,3749.6,37460,12780
4,79,98.2,0,33750,3749.6,37491,12798
4,79,98.2,0,32576,3749.6,37521,12819
4,79,98.2,0,31368,3749.6,37548,12833
4,79,98.2,0,30155,3749.6,37571,12849
4,79,98.2,0,28938,3749.6,37587,12860
4,79,98.2,0,27755,3749.6,37573,12853
4,79,98.2,0,26597,3749.6,37531,12830
4,79,98.2,0,25504,3749.6,37448,12782
4,79,98.2,0,24504,3749.6,37334,12715
4,79,98.2,0,23636,3749.6,37198,12631
4,79,98.2,0,22975,3749.6,37039,12531
4,79,98.2,0,22596,3749.6,36878,12428
4,79,98.2,0,22576,3749.6,36745,12347
4,79,98.2,0,22996,3749.6,36640,12284
4,79,98.2,0,23935,3749.6,36553,12230
4,79,98.2,0,25431,3749.6,36487,12189
4,79,98.2,0,27488,3749.6,36433,12162
4,79,98.2,0,30078,3749.6,36400,12138
4,79,98.2,0,33137,3749.6,36381,12124
4,79,98.2,0,36570,3749.6,36376,12119
4,79,98.2,0,40264,3749.6,36379,12122
4,79,98.2,0,44081,3749.6,36392,12129
4,79,98.2,0,47873,3749.6,36410,12139
4,79,98.2,0,51508,3749.6,36436,12152
4,79,98.2,0,54848,3749.6,36460,12165
4,79,98.2,0,57775,3749.6,36491,12187
4,79,98.2,0,60206,3749.6,36523,12207
4,79,98.2,0,62093,3749.6,36559,12226
4,79,98.2,8,62258,3749.6,36603,12253
4,79,98.2,0,62258,3749.6,36644,12279
4,79,98.2,0,62258,3749.6,36694,12307
4,79,98.2,0,61888,3749.6,36733,12327
4,79,98.2,0,61063,3749.6,36773,12357
4,79,98.2,0,59849,3749.6,36807,12373
4,79,98.2,0,58309,3749.6,36830,12390
4,79,98.2,0,56521,3749.6,36843,12398
4,79,98.2,0,54550,3749.6,36847,12403
4,79,98.2,0,52487,3749.6,36843,12401
4,79,98.2,0,50388,3749.6,36839,12400
4,79,98.2,0,48330,3749.6,36822,12393
4,79,98.2,0,46371,3749.6,36819,12387
4,79,98.2,0,44575,3749.6,36808,12381
4,79,98.2,0,42990,3749.6,36797,12377
4,79,98.2,0,41639,3749.6,36795,12373
4,79,98.2,0,40537,3749.6,36789,12375
4,79,98.2,0,39698,3749.6,36796,12377
4,79,98.2,0,39103,3749.6,36806,12385
4,79,98.2,0,38737,3749.6,36820,12391
4,79,98.2,0,38573,3749.6,36838,12400
4,79,98.2,0,38560,3749.6,36857,12413
4,79,98.2,0,38657,3749.6,36886,12428
4,79,98.2,0,38826,3749.6,36912,12447
4,79,98.2,0,39010,3749.6,36941,12464
4,79,98.2,0,39159,3749.6,36967,12480
4,79,98.2,0,39249,3749.6,36997,12496
4,79,98.2,0,39215,3749.6,37025,12513
4,79,98.2,0,39064,3749.6,37057,12531
4,79,98.2,0,38758,3749.6,37088,12551
4,79,98.2,0,38304,3749.6,37115,12566
4,79,98.2,0,37702,3749.6,37139,12584
4,79,98.2,0,36958,3749.6,37168,12601
4,79,98.2,0,36086,3749.6,37193,12616
4,79,98.2,0,35107,3749.6,37220,12633
4,79,98.2,0,34036,3749.6,37247,12646
4,79,98.2,0,32901,3749.6,37277,12666
4,79,98.2,0,31724,3749.6,37305,12684
4,79,98.2,0,30521,3749.6,37333,12701
4,79,98.2,0,29329,3749.6,37364,12719
4,79,98.2,0,28148,3749.6,37397,12738
4,79,98.2,0,27000,3749.6,37430,12758
4,79,98.2,0,25887,3749.6,37446,12772
4,79,98.2,0,24817,3749.6,37453,12778
4,79,98.2,0,23789,3749.6,37428,12759
4,79,98.2,0,22819,3749.6,37361,12725
4,79,98.2,0,21915,3749.6,37257,12661
4,79,98.2,0,21115,3749.6,37118,12578
4,79,98.2,0,20473,3749.6,36952,12474
4,79,98.2,0,20073,3749.6,36770,12363
4,79,98.2,0,19990,3749.6,36597,12254
4,79,98.2,0,20310,3749.6,36456,12172
4,79,98.2,0,21147,3749.6,36338,12102
4,79,98.2,0,22556,3749.6,36245,12044
4,79,98.2,0,24570,3749.6,36169,11995
4,79,98.2,0,27184,3749.6,36105,11956
4,79,98.2,0,30372,3749.6,36058,11928
4,79,98.2,0,34062,3749.6,36029,11908
4,79,98.2,0,38142,3749.6,36011,11898
4,79,98.2,0,42478,3749.6,35999,11890
4,79,98.2,0,46923,3749.6,35998,11885
4,79,98.2,0,51318,3749.6,35998,11887
4,79,98.2,0,55520,3749.6,36008,11893
4,79,98.2,0,59396,3749.6,36017,11897
4,79,98.2,0,62258,3749.6,36030,11905
4,79,98.2,0,62258,3749.6,36047,11912
4,79,98.2,0,62258,3749.6,36060,11922
4,79,98.2,0,62258,3749.6,36078,11928
4,79,98.2,8,62258,3749.6,36097,11938
4,79,98.2,0,62258,3749.6,36118,11950
4,79,98.2,0,62153,3749.6,36148,11970
4,79,98.2,0,61826,3749.6,36174,11983
4,79,98.2,0,61192,3749.6,36203,12001
4,79,98.2,0,60313,3749.6,36232,12017
4,79,98.2,0,59244,3749.6,36256,12032
4,79,98.2,0,58030,3749.6,36276,12044
4,79,98.2,0,56736,3749.6,36293,12053
4,79,98.2,0,55390,3749.6,36306,12064
4,79,98.2,0,54039,3749.6,36312,12064
4,79,98.2,0,52718,3749.6,36315,12067
4,79,98.2,0,51449,3749.6,36316,12070
4,79,98.2,0,50257,3749.6,36312,12067
4,79,98.2,0,49169,3749.6,36315,12066
4,79,98.2,0,48192,3749.6,36311,12066
4,79,98.2,0,47331,3749.6,36317,12071
4,79,98.2,0,46593,3749.6,36323,12073
4,79,98.2,0,45966,3749.6,36330,12076
4,79,98.2,0,45456,3749.6,36345,12084
4,79,98.2,0,45046,3749.6,36356,12093
4,79,98.2,0,44718,3749.6,36375,12102
4,79,98.2,0,44454,3749.6,36396,12114
4,79,98.2,0,44231,3749.6,36422,12126
4,79,98.2,0,44025,3749.6,36449,12144
4,79,98.2,0,43820,3749.6,36479,12164
4,79,98.2,0,43584,3749.6,36512,12183
4,79,98.2,0,43312,3749.6,36546,12203
4,79,98.2,0,42974,3749.6,36580,12222
4,79,98.2,0,42569,3749.6,36611,12242
4,80,98.4,0,42080,3749.6,36647,12263
4,80,98.4,0,41506,3749.6,36677,12282
4,80,98.4,0,40836,3749.6,36712,12303
4,80,98.4,0,40085,3749.6,36744,12320
4,80,98.4,0,39255,3749.6,36776,12340
4,80,98.4,0,38344,3749.6,36809,12362
4,80,98.4,0,37376,3749.6,36842,12379
4,80,98.4,0,36356,3749.6,36871,12402
4,80,98.4,0,35303,3749.6,36908,12423
4,80,98.4,0,34229,3749.6,36945,12441
4,80,98.4,0,33144,3749.6,36976,12461
4,80,98.4,0,32055,3749.6,37011,12482
4,80,98.4,0,30980,3749.6,37042,12498
4,80,98.4,0,29925,3749.6,37074,12517
4,80,98.4,0,28892,3749.6,37090,12529
4,80,98.4,0,27880,3749.6,37081,12525
4,80,98.4,0,26902,3749.6,37035,12498
4,80,98.4,0,25982,3749.6,36945,12445
4,80,98.4,0,25141,3749.6,36820,12371
4,80,98.4,0,24414,3749.6,36662,12275
4,80,98.4,0,23859,3749.6,36480,12161
4,80,98.4,0,23550,3749.6,36320,12062
4,80,98.4,0,23549,3749.6,36181,11978
4,80,98.4,0,23946,3749.6,36067,11909
4,80,98.4,0,24797,3749.6,35969,11851
4,80,98.4,0,26141,3749.6,35890,11801
4,80,98.4,0,27981,3749.6,35828,11765
4,80,98.4,0,30295,3749.6,35778,11736
4,80,98.4,0,33036,3749.6,35739,11713
4,80,98.4,0,36113,3749.6,35714,11696
4,80,98.4,0,39432,3749.6,35699,11687
4,80,98.4,0,42873,3749.6,35696,11684
4,80,98.4,0,46326,3749.6,35698,11685
4,80,98.4,0,49657,3749.6,35703,11686
4,80,98.4,0,52775,3749.6,35714,11690
4,80,98.4,0,55578,3749.6,35722,11696
4,80,98.4,0,58008,3749.6,35735,11704
4,80,98.4,0,59993,3749.6,35749,11711
4,80,98.4,0,61515,3749.6,35764,11719
4,80,98.4,8,62258,3749.6,35785,11727
4,80,98.4,0,62258,3749.6,35807,11740
4,80,98.4,0,62252,3749.6,35836,11755
4,80,98.4,0,62039,3749.6,35869,11773
4,80,98.4,0,61517,3749.6,35898,11791
4,80,98.4,0,60722,3749.6,35936,11814
4,80,98.4,0,59715,3749.6,35969,11832
4,80,98.4,0,58546,3749.6,35997,11847
4,80,98.4,0,57263,3749.6,36027,11866
4,80,98.4,0,55907,3749.6,36050,11881
4,80,98.4,0,54510,3749.6,36066,11891
4,80,98.4,0,53108,3749.6,36083,11903
4,80,98.4,0,51736,3749.6,36095,11904
4,80,98.4,0,50406,3749.6,36104,11914
4,80,98.4,0,49137,3749.6,36112,11915
4,80,98.4,0,47947,3749.6,36118,11922
4,80,98.4,0,46853,3749.6,36129,11925
4,80,98.4,0,45857,3749.6,36138,11932
4,80,98.4,0,44963,3749.6,36149,11938
4,80,98.4,0,44160,3749.6,36165,11947
4,80,98.4,0,43460,3749.6,36183,11958
4,80,98.4,0,42845,3749.6,36202,11969
4,80,98.4,0,42303,3749.6,36227,11985
4,80,98.4,0,41822,3749.6,36259,12002
4,80,98.4,0,41382,3749.6,36286,12018
4,80,98.4,0,40961,3749.6,36318,12040
4,80,98.4,0,40538,3749.6,36352,12057
4,80,98.4,0,40108,3749.6,36388,12079
4,80,98.4,0,39640,3749.6,36422,12098
4,80,98.4,0,39121,3749.6,36455,12119
4,80,98.4,0,38538,3749.6,36496,12142
4,80,98.4,0,37890,3749.6,36532,12166
4,80,98.4,0,37172,3749.6,36568,12186
4,80,98.4,0,36376,3749.6,36602,12208
4,80,98.4,0,35502,3749.6,36638,12228
4,80,98.4,0,34575,3749.6,36670,12249
4,80,98.4,0,33575,3749.6,36703,12268
4,80,98.4,0,32527,3749.6,36735,12291
4,80,98.4,0,31443,3749.6,36763,12306
4,80,98.4,0,30329,3749.6,36793,12329
4,80,98.4,0,29206,3749.6,36821,12344
4,80,98.4,0,28079,3749.6,36851,12364
4,80,98.4,0,26968,3749.6,36879,12382
4,80,98.4,0,25885,3749.6,36909,12398
4,80,98.4,0,24825,3749.6,36940,12421
4,80,98.4,0,23795,3749.6,36970,12439
4,80,98.4,0,22821,3749.6,37005,12457
4,80,98.4,0,21883,3749.6,37041,12480
4,80,98.4,0,20982,3749.6,37073,12499
4,80,98.4,0,20125,3749.6,37101,12516
4,80,98.4,0,19299,3749.6,37120,12533
4,80,98.4,0,18517,3749.6,37123,12535
4,80,98.4,0,17760,3749.6,37088,12512
4,80,98.4,0,17028,3749.6,37011,12466
4,80,98.4,0,16361,3749.6,36891,12395
4,80,98.4,0,15770,3749.6,36740,12306
4,80,98.4,0,15328,3749.6,36559,12194
4,80,98.4,0,15100,3749.6,36371,12079
4,80,98.4,0,15164,3749.6,36216,11985
4,80,98.4,0,15605,3749.6,36087,11908
4,80,98.4,0,16500,3749.6,35985,11847
4,80,98.5,0,17891,3749.6,35895,11792
4,80,98.5,0,19823,3749.6,35827,11751
4,80,98.5,0,22261,3749.6,35779,11723
4,80,98.5,0,25167,3749.6,35746,11697
4,80,98.5,0,28467,3749.6,35723,11683
4,80,98.5,0,32065,3749.6,35713,11680
4,80,98.5,0,35842,3749.6,35712,11676
4,80,98.5,0,39656,3749.6,35723,11681
4,80,98.5,0,43395,3749.6,35733,11686
4,80,98.5,0,46916,3749.6,35754,11696
4,80,98.5,0,50110,3749.6,35775,11705
4,80,98.5,0,52890,3749.6,35802,11716
4,80,98.5,0,55194,3749.6,35826,11727
4,80,98.5,0,56981,3749.6,35848,11739
4,80,98.5,8,58231,3749.6,35864,11748
4,80,98.5,0,58952,3749.6,35886,11763
4,80,98.5,0,59195,3749.6,35909,11776
4,80,98.5,0,58996,3749.6,35942,11794
4,80,98.5,0,58400,3749.6,35972,11815
4,80,98.5,0,57494,3749.6,36002,11834
